Args in experiment:
Namespace(task_name='classification', is_training=1, model_id='PTB-XL-DCTOnly', model='DCTOnly', data='PTB-XL', root_path='./dataset/PTB-XL/', data_path='ETTh1.csv', features='M', target='OT', freq='h', seq_len=96, label_len=48, pred_len=96, seasonal_patterns='Monthly', inverse=False, mask_rate=0.25, anomaly_ratio=0.25, expand=2, d_conv=4, top_k=5, num_kernels=6, enc_in=7, dec_in=7, c_out=7, d_model=128, n_heads=8, e_layers=6, d_layers=1, d_ff=256, moving_avg=25, factor=1, distil=True, dropout=0.1, embed='timeF', activation='gelu', output_attention=False, no_inter_attn=False, chunk_size=16, patch_len=16, stride=8, sampling_rate=256, patch_len_list='2,4,8,8,16,16,16,16,32,32,32,32,32,32,32,32', single_channel=False, augmentations='none', num_workers=0, itr=1, train_epochs=100, batch_size=64, patience=10, learning_rate=0.0001, des='ServerDCTOnly', loss='MSE', lradj='type1', use_amp=False, swa=True, use_gpu=True, gpu=0, use_multi_gpu=False, devices='0,1,2,3', p_hidden_dims=[128, 128], p_hidden_layers=2)
Use GPU: cuda:0
test ids: [14157, 14159, 14160, 14162, 14164, 14165, 14166, 14169, 14173, 14174, 14176, 14182, 14185, 14186, 14190, 14192, 14198, 14205, 14207, 14209, 14210, 14213, 14216, 14217, 14219, 14223, 14225, 14228, 14229, 14230, 14232, 14238, 14239, 14240, 14241, 14244, 14245, 14247, 14248, 14251, 14252, 14257, 14260, 14263, 14264, 14265, 14266, 14267, 14269, 14270, 14273, 14274, 14275, 14277, 14279, 14280, 14284, 14285, 14289, 14293, 14295, 14297, 14302, 14303, 14308, 14309, 14310, 14316, 14317, 14318, 14320, 14321, 14322, 14323, 14324, 14325, 14327, 14328, 14331, 14334, 14335, 14341, 14342, 14343, 14346, 14347, 14348, 14349, 14350, 14354, 14356, 14357, 14361, 14362, 14363, 14364, 14365, 14366, 14367, 14368, 14370, 14371, 14376, 14377, 14378, 14379, 14383, 14386, 14392, 14398, 14400, 14401, 14403, 14406, 14408, 14410, 14411, 14412, 14414, 14415, 14416, 14418, 14422, 14426, 14428, 14429, 14430, 14432, 14436, 14438, 14439, 14440, 14444, 14448, 14449, 14451, 14452, 14453, 14454, 14464, 14465, 14466, 14467, 14468, 14470, 14471, 14472, 14473, 14474, 14483, 14485, 14486, 14491, 14493, 14494, 14496, 14497, 14498, 14501, 14503, 14504, 14505, 14507, 14509, 14510, 14513, 14514, 14516, 14524, 14525, 14527, 14530, 14531, 14533, 14534, 14535, 14540, 14545, 14546, 14547, 14550, 14551, 14555, 14557, 14559, 14560, 14561, 14562, 14563, 14566, 14567, 14569, 14576, 14577, 14580, 14581, 14582, 14583, 14586, 14587, 14589, 14590, 14592, 14597, 14598, 14600, 14602, 14604, 14605, 14606, 14607, 14608, 14611, 14612, 14613, 14614, 14618, 14623, 14625, 14626, 14631, 14633, 14637, 14638, 14642, 14643, 14645, 14653, 14654, 14657, 14658, 14660, 14661, 14664, 14666, 14667, 14668, 14669, 14672, 14675, 14676, 14677, 14681, 14687, 14690, 14691, 14693, 14696, 14697, 14699, 14701, 14703, 14705, 14706, 14708, 14710, 14712, 14713, 14714, 14719, 14721, 14725, 14726, 14728, 14729, 14732, 14733, 14734, 14735, 14738, 14739, 14741, 14742, 14743, 14746, 14748, 14757, 14759, 14761, 14762, 14763, 14764, 14765, 14768, 14769, 14770, 14774, 14775, 14777, 14778, 14780, 14781, 14782, 14783, 14784, 14785, 14786, 14787, 14788, 14789, 14790, 14791, 14792, 14794, 14797, 14798, 14799, 14801, 14806, 14807, 14808, 14809, 14812, 14813, 14814, 14817, 14818, 14820, 14825, 14826, 14828, 14833, 14835, 14836, 14837, 14838, 14840, 14843, 14844, 14845, 14848, 14850, 14853, 14855, 14856, 14857, 14858, 14863, 14864, 14865, 14869, 14872, 14873, 14877, 14879, 14880, 14882, 14883, 14885, 14886, 14887, 14888, 14889, 14890, 14891, 14892, 14895, 14896, 14897, 14898, 14899, 14901, 14903, 14906, 14908, 14909, 14910, 14912, 14914, 14919, 14920, 14921, 14922, 14924, 14926, 14928, 14934, 14936, 14939, 14940, 14941, 14942, 14943, 14944, 14947, 14948, 14956, 14958, 14965, 14966, 14972, 14975, 14977, 14978, 14980, 14988, 14992, 14993, 14995, 14996, 15000, 15008, 15009, 15012, 15018, 15019, 15021, 15025, 15027, 15028, 15033, 15035, 15036, 15037, 15039, 15041, 15042, 15043, 15045, 15047, 15048, 15049, 15050, 15051, 15052, 15053, 15057, 15058, 15060, 15062, 15065, 15070, 15072, 15073, 15074, 15080, 15081, 15082, 15083, 15088, 15089, 15090, 15091, 15094, 15095, 15101, 15103, 15106, 15108, 15110, 15111, 15112, 15113, 15114, 15116, 15117, 15118, 15119, 15121, 15122, 15123, 15124, 15126, 15127, 15128, 15131, 15132, 15133, 15134, 15136, 15137, 15141, 15144, 15145, 15148, 15149, 15151, 15152, 15153, 15156, 15160, 15165, 15167, 15168, 15169, 15170, 15171, 15174, 15176, 15180, 15183, 15188, 15195, 15196, 15199, 15201, 15203, 15205, 15206, 15208, 15210, 15212, 15214, 15216, 15217, 15219, 15222, 15223, 15225, 15226, 15227, 15228, 15230, 15232, 15234, 15235, 15238, 15240, 15243, 15244, 15245, 15247, 15251, 15252, 15253, 15254, 15255, 15257, 15260, 15261, 15265, 15267, 15268, 15270, 15280, 15283, 15288, 15289, 15292, 15293, 15294, 15295, 15296, 15299, 15300, 15301, 15305, 15307, 15308, 15310, 15311, 15316, 15318, 15323, 15324, 15327, 15329, 15330, 15333, 15334, 15335, 15336, 15338, 15340, 15343, 15345, 15349, 15350, 15351, 15353, 15356, 15358, 15359, 15360, 15364, 15365, 15366, 15373, 15375, 15377, 15378, 15379, 15381, 15382, 15385, 15392, 15393, 15396, 15397, 15398, 15399, 15401, 15403, 15404, 15405, 15406, 15407, 15409, 15411, 15415, 15419, 15420, 15421, 15422, 15428, 15431, 15434, 15435, 15437, 15438, 15440, 15442, 15444, 15445, 15446, 15448, 15450, 15452, 15453, 15454, 15455, 15456, 15457, 15459, 15460, 15461, 15462, 15463, 15471, 15480, 15482, 15485, 15488, 15489, 15491, 15504, 15505, 15506, 15508, 15511, 15512, 15514, 15515, 15521, 15522, 15524, 15526, 15527, 15529, 15530, 15531, 15533, 15535, 15537, 15538, 15539, 15540, 15541, 15542, 15543, 15548, 15549, 15551, 15552, 15553, 15554, 15556, 15557, 15560, 15563, 15567, 15568, 15569, 15570, 15575, 15576, 15577, 15580, 15582, 15583, 15587, 15588, 15589, 15590, 15591, 15592, 15593, 15595, 15597, 15599, 15601, 15603, 15605, 15607, 15610, 15613, 15615, 15618, 15620, 15622, 15623, 15627, 15631, 15633, 15634, 15635, 15636, 15644, 15645, 15646, 15649, 15652, 15653, 15654, 15658, 15659, 15664, 15671, 15672, 15673, 15676, 15677, 15681, 15683, 15684, 15685, 15686, 15689, 15696, 15698, 15699, 15700, 15701, 15704, 15705, 15706, 15707, 15710, 15712, 15714, 15716, 15718, 15719, 15722, 15723, 15724, 15728, 15729, 15730, 15732, 15734, 15735, 15737, 15739, 15742, 15743, 15749, 15751, 15753, 15754, 15755, 15756, 15757, 15758, 15761, 15762, 15764, 15772, 15777, 15778, 15780, 15781, 15783, 15784, 15785, 15787, 15790, 15791, 15793, 15795, 15796, 15797, 15806, 15810, 15811, 15812, 15813, 15815, 15816, 15828, 15830, 15831, 15833, 15834, 15840, 15841, 15847, 15849, 15853, 15854, 15856, 15864, 15865, 15868, 15876, 15877, 15879, 15880, 15881, 15883, 15884, 15886, 15889, 15891, 15893, 15894, 15895, 15899, 15907, 15909, 15910, 15911, 15914, 15916, 15920, 15925, 15929, 15931, 15932, 15933, 15934, 15935, 15936, 15940, 15943, 15944, 15945, 15948, 15950, 15951, 15952, 15953, 15958, 15960, 15961, 15962, 15965, 15966, 15968, 15974, 15978, 15982, 15984, 15987, 15990, 15992, 15995, 15996, 15998, 15999, 16000, 16002, 16003, 16005, 16006, 16007, 16011, 16012, 16013, 16014, 16015, 16017, 16018, 16019, 16022, 16026, 16029, 16032, 16033, 16036, 16037, 16038, 16039, 16041, 16042, 16047, 16048, 16052, 16054, 16055, 16056, 16058, 16059, 16060, 16061, 16063, 16065, 16066, 16067, 16069, 16071, 16072, 16075, 16077, 16078, 16079, 16080, 16082, 16087, 16091, 16093, 16094, 16096, 16099, 16107, 16108, 16109, 16116, 16119, 16121, 16125, 16126, 16129, 16130, 16133, 16134, 16135, 16140, 16141, 16142, 16143, 16147, 16149, 16150, 16152, 16154, 16156, 16157, 16158, 16160, 16171, 16172, 16173, 16174, 16176, 16178, 16179, 16180, 16182, 16183, 16187, 16188, 16189, 16193, 16196, 16197, 16198, 16200, 16202, 16203, 16204, 16205, 16210, 16213, 16214, 16216, 16221, 16224, 16228, 16230, 16233, 16234, 16235, 16236, 16245, 16246, 16249, 16255, 16257, 16259, 16260, 16264, 16265, 16266, 16267, 16268, 16269, 16270, 16271, 16272, 16273, 16275, 16276, 16279, 16280, 16282, 16283, 16284, 16287, 16289, 16290, 16291, 16296, 16297, 16300, 16301, 16303, 16304, 16306, 16307, 16309, 16313, 16314, 16315, 16316, 16317, 16318, 16319, 16320, 16321, 16322, 16323, 16324, 16326, 16327, 16329, 16333, 16334, 16335, 16336, 16337, 16338, 16339, 16340, 16342, 16343, 16347, 16350, 16351, 16352, 16353, 16354, 16355, 16356, 16357, 16358, 16359, 16360, 16361, 16364, 16367, 16369, 16370, 16372, 16373, 16374, 16376, 16377, 16379, 16382, 16383, 16384, 16385, 16386, 16387, 16388, 16390, 16391, 16392, 16393, 16394, 16398, 16399, 16401, 16402, 16403, 16404, 16405, 16406, 16410, 16411, 16414, 16415, 16416, 16421, 16423, 16425, 16426, 16431, 16432, 16433, 16434, 16437, 16438, 16439, 16440, 16442, 16443, 16444, 16445, 16447, 16450, 16451, 16453, 16454, 16455, 16456, 16457, 16459, 16460, 16461, 16464, 16468, 16469, 16470, 16471, 16472, 16474, 16479, 16481, 16484, 16485, 16486, 16487, 16489, 16491, 16494, 16495, 16496, 16497, 16501, 16502, 16503, 16505, 16511, 16513, 16517, 16518, 16521, 16523, 16524, 16527, 16531, 16537, 16538, 16539, 16542, 16543, 16544, 16545, 16546, 16547, 16548, 16554, 16555, 16559, 16561, 16563, 16568, 16571, 16574, 16577, 16579, 16585, 16586, 16590, 16593, 16594, 16597, 16598, 16601, 16603, 16605, 16608, 16610, 16612, 16614, 16618, 16620, 16624, 16625, 16626, 16627, 16629, 16635, 16636, 16637, 16638, 16639, 16647, 16650, 16651, 16653, 16654, 16655, 16656, 16657, 16659, 16660, 16661, 16666, 16676, 16677, 16681, 16683, 16684, 16686, 16687, 16688, 16694, 16697, 16700, 16702, 16704, 16711, 16712, 16713, 16714, 16715, 16717, 16719, 16721, 16723, 16724, 16730, 16731, 16734, 16735, 16737, 16739, 16743, 16746, 16747, 16751, 16752, 16756, 16757, 16758, 16759, 16760, 16767, 16768, 16770, 16771, 16773, 16774, 16776, 16778, 16780, 16788, 16791, 16792, 16793, 16798, 16799, 16803, 16806, 16807, 16808, 16810, 16811, 16812, 16814, 16815, 16816, 16818, 16819, 16820, 16821, 16824, 16829, 16831, 16834, 16835, 16836, 16838, 16840, 16842, 16845, 16846, 16849, 16852, 16853, 16855, 16858, 16859, 16860, 16861, 16863, 16867, 16873, 16874, 16875, 16876, 16878, 16881, 16885, 16886, 16890, 16891, 16892, 16895, 16897, 16898, 16911, 16912, 16918, 16923, 16925, 16926, 16927, 16930, 16932, 16933, 16940, 16942, 16945, 16946, 16947, 16950, 16951, 16953, 16955, 16963, 16964, 16966, 16969, 16971, 16972, 16973, 16975, 16979, 16980, 16983, 16985, 16986, 16994, 16995, 16996, 16997, 17001, 17002, 17004, 17005, 17007, 17008, 17009, 17012, 17014, 17017, 17020, 17022, 17023, 17024, 17025, 17026, 17028, 17029, 17031, 17032, 17033, 17034, 17036, 17037, 17039, 17040, 17041, 17043, 17046, 17050, 17052, 17053, 17054, 17055, 17058, 17059, 17060, 17070, 17071, 17072, 17076, 17078, 17080, 17082, 17085, 17091, 17093, 17095, 17096, 17097, 17099, 17100, 17101, 17103, 17107, 17108, 17110, 17111, 17115, 17117, 17118, 17120, 17121, 17122, 17126, 17129, 17134, 17135, 17137, 17138, 17140, 17143, 17145, 17146, 17151, 17153, 17157, 17158, 17159, 17160, 17161, 17162, 17163, 17164, 17166, 17167, 17168, 17171, 17173, 17174, 17175, 17176, 17178, 17179, 17182, 17184, 17185, 17187, 17188, 17190, 17191, 17192, 17193, 17199, 17202, 17206, 17207, 17208, 17209, 17212, 17216, 17217, 17218, 17219, 17220, 17222, 17226, 17228, 17231, 17233, 17234, 17236, 17237, 17238, 17242, 17247, 17248, 17251, 17253, 17254, 17255, 17256, 17259, 17260, 17267, 17271, 17272, 17273, 17275, 17279, 17280, 17281, 17282, 17283, 17285, 17288, 17290, 17291, 17292, 17293, 17298, 17299, 17300, 17301, 17302, 17314, 17316, 17317, 17319, 17324, 17325, 17329, 17333, 17334, 17335, 17336, 17337, 17343, 17346, 17353, 17357, 17359, 17361, 17363, 17364, 17365, 17366, 17367, 17368, 17369, 17370, 17371, 17375, 17377, 17378, 17379, 17380, 17381, 17383, 17384, 17386, 17387, 17388, 17389, 17392, 17393, 17395, 17396, 17401, 17402, 17403, 17405, 17408, 17410, 17411, 17414, 17417, 17419, 17424, 17426, 17432, 17434, 17435, 17437, 17439, 17440, 17443, 17444, 17450, 17452, 17455, 17457, 17458, 17459, 17461, 17463, 17467, 17468, 17469, 17470, 17473, 17474, 17476, 17479, 17480, 17481, 17482, 17483, 17485, 17488, 17496, 17497, 17499, 17500, 17501, 17506, 17507, 17508, 17509, 17510, 17514, 17515, 17517, 17518, 17522, 17524, 17527, 17531, 17532, 17534, 17535, 17537, 17538, 17540, 17541, 17542, 17543, 17544, 17545, 17546, 17547, 17548, 17549, 17551, 17552, 17554, 17559, 17561, 17564, 17566, 17567, 17568, 17569, 17571, 17573, 17574, 17576, 17577, 17578, 17580, 17582, 17584, 17586, 17594, 17595, 14521, 14522, 14523, 14526, 14528, 14529, 14537, 14544, 14549, 14558, 14564, 14568, 14570, 14571, 14584, 14594, 14595, 14596, 14599, 14601, 14609, 14615, 14617, 14619, 14632, 14641, 14646, 14647, 14650, 14662, 14663, 14665, 14670, 14671, 14673, 14674, 14678, 14680, 14688, 14689, 14692, 14694, 14702, 14707, 14709, 14711, 14723, 14724, 14730, 14737, 14744, 14752, 14753, 14754, 14755, 14756, 14758, 14772, 14773, 14776, 14779, 14796, 14802, 14822, 14849, 14851, 14852, 14854, 14860, 14861, 14866, 14867, 14870, 14871, 14884, 14907, 14911, 14913, 14916, 14929, 14931, 14933, 14937, 14938, 14946, 14949, 14950, 14952, 14953, 14957, 14959, 14962, 14963, 14967, 14968, 14969, 14976, 14983, 14985, 14990, 14994, 14997, 14998, 14999, 15013, 15014, 15023, 15029, 15030, 15031, 15038, 15040, 15055, 15056, 15066, 15067, 15068, 15071, 15085, 15086, 15087, 15098, 15099, 15102, 15104, 15105, 15130, 15139, 15143, 15146, 15147, 15154, 15158, 15159, 15162, 15166, 15173, 15177, 15179, 15181, 15185, 15186, 15187, 15189, 15192, 15200, 15202, 15204, 15207, 15213, 15231, 15233, 15241, 15248, 15249, 15250, 15256, 15262, 15266, 15271, 15272, 15273, 15274, 15275, 15276, 15278, 15279, 15281, 15284, 15285, 15287, 15290, 15291, 15297, 15306, 15315, 15321, 15328, 15331, 15341, 15342, 15347, 15354, 15362, 15363, 15369, 15370, 15371, 15376, 15380, 15387, 15390, 15391, 15395, 15402, 15408, 15412, 15413, 15418, 15432, 15433, 15465, 15466, 15468, 15476, 15478, 15481, 15483, 15484, 15493, 15495, 15513, 15534, 15550, 15555, 15565, 15573, 15574, 15578, 15579, 15586, 15600, 15602, 15608, 15612, 15616, 15617, 15619, 15621, 15625, 15626, 15632, 15639, 15640, 15641, 15642, 15650, 15661, 15662, 15668, 15669, 15680, 15682, 15687, 15690, 15693, 15695, 15697, 15703, 15708, 15711, 15721, 15727, 15733, 15741, 15745, 15750, 15763, 15765, 15766, 15768, 15774, 15775, 15779, 15788, 15799, 15802, 15803, 15807, 15818, 15820, 15822, 15837, 15838, 15843, 15848, 15851, 15855, 15857, 15860, 15863, 15869, 15871, 15890, 15896, 15900, 15901, 15903, 15904, 15908, 15921, 15922, 15924, 15927, 15946, 15947, 15955, 15964, 15969, 15971, 15972, 15975, 15979, 15980, 15997, 16008, 16020, 16030, 16031, 16034, 16035, 16040, 16043, 16045, 16046, 16049, 16062, 16070, 16074, 16076, 16083, 16084, 16086, 16097, 16100, 16104, 16114, 16117, 16127, 16128, 16132, 16138, 16139, 16146, 16155, 16159, 16163, 16164, 16165, 16167, 16169, 16184, 16185, 16206, 16209, 16211, 16212, 16226, 16229, 16239, 16241, 16242, 16247, 16251, 16252, 16254, 16263, 16278, 16293, 16298, 16305, 16330, 16341, 16344, 16345, 16365, 16366, 16371, 16375, 16395, 16397, 16408, 16409, 16412, 16413, 16424, 16428, 16452, 16458, 16462, 16463, 16466, 16467, 16473, 16475, 16476, 16477, 16478, 16482, 16483, 16493, 16498, 16499, 16500, 16514, 16520, 16526, 16529, 16533, 16535, 16536, 16549, 16550, 16556, 16558, 16562, 16564, 16567, 16570, 16572, 16578, 16580, 16582, 16583, 16587, 16588, 16589, 16591, 16592, 16599, 16600, 16607, 16609, 16621, 16622, 16623, 16628, 16630, 16641, 16642, 16645, 16662, 16665, 16668, 16672, 16673, 16679, 16682, 16685, 16689, 16695, 16698, 16701, 16703, 16706, 16707, 16708, 16710, 16720, 16726, 16729, 16732, 16741, 16742, 16749, 16753, 16755, 16764, 16766, 16769, 16777, 16779, 16784, 16787, 16789, 16790, 16797, 16800, 16809, 16813, 16822, 16833, 16837, 16843, 16847, 16848, 16851, 16854, 16857, 16862, 16869, 16877, 16880, 16883, 16884, 16893, 16899, 16900, 16901, 16907, 16916, 16917, 16928, 16929, 16935, 16937, 16941, 16943, 16965, 16967, 16970, 16974, 16976, 16978, 16981, 16984, 17000, 17010, 17021, 17027, 17030, 17035, 17044, 17048, 17049, 17056, 17057, 17061, 17062, 17066, 17067, 17073, 17075, 17081, 17083, 17086, 17088, 17090, 17092, 17104, 17105, 17116, 17128, 17132, 17136, 17141, 17147, 17150, 17155, 17156, 17169, 17172, 17180, 17181, 17194, 17195, 17196, 17198, 17201, 17205, 17211, 17215, 17224, 17225, 17227, 17229, 17230, 17232, 17239, 17243, 17246, 17250, 17252, 17257, 17263, 17269, 17278, 17289, 17296, 17303, 17305, 17308, 17310, 17312, 17313, 17315, 17322, 17327, 17328, 17338, 17340, 17342, 17344, 17345, 17354, 17355, 17356, 17358, 17362, 17372, 17385, 17390, 17391, 17404, 17406, 17409, 17416, 17418, 17421, 17422, 17428, 17433, 17449, 17462, 17464, 17472, 17477, 17478, 17489, 17490, 17491, 17492, 17493, 17494, 17502, 17504, 17505, 17513, 17520, 17521, 17525, 17526, 17528, 17536, 17550, 17556, 17563, 17570, 17588, 17589, 13347, 13359, 13361, 13381, 13399, 13401, 13406, 13409, 13410, 13411, 13413, 13420, 13428, 13478, 13480, 13507, 13516, 13522, 13528, 13537, 13540, 13544, 13545, 13548, 13557, 13566, 13568, 13570, 13583, 13585, 13586, 13598, 13603, 13608, 13624, 13638, 13658, 13698, 13701, 13713, 13722, 13723, 13726, 13743, 13750, 13751, 13752, 13768, 13770, 13781, 13785, 13793, 13800, 13805, 13809, 13810, 13817, 13835, 13841, 13842, 13856, 13857, 13879, 13907, 13909, 13935, 13936, 13939, 13950, 13962, 13973, 13976, 13983, 14001, 14006, 14013, 14014, 14019, 14027, 14033, 14048, 14056, 14059, 14072, 14076, 14089, 14093, 14098, 14103, 14106, 14119, 14122, 14131, 14138, 14158, 14171, 14172, 14178, 14181, 14187, 14195, 14196, 14201, 14214, 14218, 14220, 14231, 14233, 14242, 14249, 14255, 14258, 14271, 14272, 14283, 14287, 14291, 14294, 14298, 14299, 14319, 14326, 14336, 14337, 14338, 14340, 14344, 14345, 14360, 14375, 14385, 14393, 14395, 14396, 14404, 14405, 14407, 14417, 14435, 14437, 14443, 14455, 14457, 14462, 14482, 14495, 14512, 14518, 14536, 14542, 14548, 14572, 14573, 14578, 14593, 14610, 14622, 14624, 14630, 14639, 14644, 14659, 14683, 14685, 14686, 14700, 14716, 14720, 14736, 14760, 14766, 14771, 14800, 14805, 14815, 14819, 14823, 14827, 14829, 14830, 14832, 14834, 14847, 14859, 14868, 14893, 14904, 14917, 14918, 14923, 14930, 14935, 14951, 14955, 14960, 14961, 14970, 14973, 14984, 14986, 14991, 15002, 15004, 15010, 15011, 15020, 15024, 15034, 15059, 15063, 15077, 15078, 15079, 15084, 15115, 15125, 15140, 15161, 15164, 15172, 15175, 15190, 15198, 15209, 15215, 15236, 15239, 15242, 15263, 15264, 15309, 15312, 15314, 15317, 15325, 15332, 15348, 15355, 15367, 15383, 15400, 15410, 15417, 15423, 15424, 15427, 15441, 15474, 15487, 15490, 15492, 15494, 15496, 15497, 15498, 15499, 15500, 15501, 15502, 15509, 15517, 15518, 15519, 15544, 15558, 15559, 15562, 15566, 15581, 15594, 15596, 15611, 15614, 15628, 15630, 15643, 15647, 15648, 15651, 15657, 15665, 15666, 15670, 15675, 15694, 15702, 15713, 15717, 15726, 15731, 15738, 15740, 15744, 15746, 15747, 15769, 15771, 15773, 15776, 15792, 15798, 15800, 15801, 15804, 15817, 15823, 15824, 15827, 15846, 15859, 15861, 15862, 15870, 15873, 15888, 15898, 15905, 15912, 15913, 15926, 15928, 15930, 15941, 15942, 15957, 15963, 15983, 15985, 15989, 15994, 16004, 16016, 16021, 16024, 16025, 16027, 16028, 16057, 16068, 16073, 16085, 16101, 16102, 16105, 16111, 16113, 16124, 16131, 16136, 16161, 16162, 16168, 16177, 16181, 16186, 16194, 16195, 16207, 16219, 16220, 16223, 16227, 16232, 16240, 16256, 16261, 16262, 16274, 16277, 16285, 16286, 16288, 16299, 16308, 16325, 16368, 16378, 16380, 16389, 16419, 16427, 16429, 16435, 16448, 16506, 16516, 16522, 16534, 16557, 16566, 16576, 16596, 16602, 16611, 16615, 16617, 16619, 16632, 16640, 16643, 16658, 16663, 16671, 16674, 16678, 16690, 16693, 16696, 16722, 16728, 16738, 16740, 16744, 16754, 16761, 16765, 16772, 16775, 16794, 16795, 16805, 16832, 16844, 16850, 16864, 16865, 16888, 16889, 16894, 16902, 16903, 16904, 16905, 16908, 16922, 16924, 16936, 16948, 16949, 16954, 16959, 16960, 16988, 17003, 17015, 17018, 17019, 17038, 17045, 17047, 17064, 17068, 17077, 17089, 17098, 17112, 17119, 17124, 17125, 17130, 17131, 17170, 17210, 17213, 17235, 17240, 17241, 17244, 17245, 17262, 17266, 17268, 17274, 17276, 17277, 17284, 17295, 17309, 17311, 17323, 17331, 17332, 17341, 17348, 17350, 17351, 17352, 17360, 17373, 17374, 17394, 17400, 17415, 17425, 17427, 17436, 17438, 17445, 17446, 17447, 17448, 17460, 17465, 17466, 17471, 17475, 17484, 17495, 17503, 17519, 17553, 17560, 17562, 17565, 17583, 17590, 17596, 13848, 13849, 13851, 13858, 13859, 13860, 13880, 13900, 13904, 13911, 13913, 13920, 13925, 13949, 13958, 13964, 13965, 13979, 13982, 13987, 13992, 14008, 14011, 14028, 14031, 14043, 14044, 14049, 14055, 14057, 14060, 14066, 14080, 14085, 14090, 14102, 14109, 14121, 14125, 14127, 14128, 14135, 14136, 14161, 14163, 14170, 14180, 14184, 14193, 14194, 14197, 14206, 14208, 14224, 14237, 14253, 14256, 14261, 14262, 14281, 14300, 14301, 14307, 14311, 14312, 14313, 14315, 14329, 14351, 14355, 14369, 14373, 14380, 14384, 14387, 14397, 14402, 14409, 14413, 14423, 14424, 14427, 14431, 14433, 14434, 14445, 14447, 14450, 14456, 14460, 14469, 14477, 14488, 14515, 14517, 14532, 14538, 14539, 14541, 14543, 14552, 14556, 14575, 14579, 14585, 14603, 14616, 14620, 14621, 14634, 14635, 14636, 14640, 14648, 14651, 14652, 14695, 14698, 14704, 14727, 14731, 14745, 14747, 14749, 14750, 14751, 14767, 14793, 14795, 14803, 14804, 14810, 14811, 14816, 14824, 14831, 14839, 14841, 14874, 14876, 14878, 14881, 14894, 14900, 14902, 14905, 14915, 14925, 14927, 14932, 14945, 14954, 14964, 14971, 14974, 14979, 14981, 14982, 14987, 15001, 15003, 15005, 15006, 15007, 15015, 15016, 15017, 15022, 15026, 15032, 15044, 15054, 15061, 15064, 15075, 15076, 15093, 15096, 15100, 15107, 15109, 15120, 15135, 15138, 15142, 15150, 15155, 15157, 15163, 15178, 15184, 15194, 15211, 15218, 15221, 15224, 15237, 15258, 15259, 15286, 15298, 15303, 15304, 15319, 15320, 15337, 15344, 15346, 15352, 15357, 15361, 15372, 15374, 15384, 15389, 15394, 15414, 15416, 15426, 15429, 15439, 15443, 15447, 15458, 15464, 15467, 15469, 15470, 15472, 15473, 15475, 15477, 15479, 15486, 15503, 15510, 15516, 15520, 15523, 15525, 15528, 15532, 15536, 15545, 15546, 15547, 15561, 15564, 15571, 15572, 15584, 15585, 15598, 15604, 15606, 15609, 15637, 15638, 15655, 15656, 15660, 15663, 15667, 15674, 15679, 15688, 15691, 15692, 15709, 15715, 15720, 15725, 15748, 15752, 15759, 15767, 15786, 15789, 15805, 15808, 15814, 15819, 15829, 15835, 15836, 15839, 15844, 15845, 15850, 15852, 15858, 15866, 15867, 15872, 15874, 15875, 15878, 15887, 15892, 15897, 15906, 15915, 15917, 15918, 15919, 15939, 15949, 15967, 15970, 15973, 15976, 15981, 15986, 15991, 15993, 16009, 16023, 16044, 16051, 16053, 16064, 16081, 16088, 16090, 16092, 16095, 16098, 16103, 16110, 16112, 16115, 16118, 16122, 16123, 16137, 16145, 16153, 16170, 16175, 16191, 16199, 16201, 16215, 16218, 16231, 16237, 16238, 16243, 16244, 16248, 16253, 16258, 16281, 16292, 16294, 16310, 16311, 16312, 16328, 16331, 16332, 16346, 16348, 16349, 16362, 16381, 16396, 16400, 16407, 16418, 16420, 16422, 16430, 16436, 16446, 16449, 16465, 16480, 16490, 16492, 16504, 16507, 16508, 16510, 16512, 16515, 16519, 16528, 16532, 16540, 16551, 16552, 16553, 16560, 16565, 16573, 16575, 16581, 16604, 16616, 16644, 16646, 16648, 16649, 16652, 16664, 16667, 16669, 16680, 16692, 16699, 16705, 16709, 16718, 16725, 16733, 16736, 16745, 16748, 16762, 16781, 16782, 16785, 16786, 16796, 16801, 16802, 16804, 16817, 16825, 16826, 16827, 16828, 16830, 16856, 16871, 16872, 16882, 16887, 16896, 16906, 16909, 16910, 16915, 16920, 16931, 16934, 16938, 16939, 16944, 16952, 16956, 16957, 16958, 16962, 16968, 16977, 16987, 16990, 16991, 16992, 16993, 16998, 16999, 17051, 17063, 17065, 17074, 17079, 17094, 17106, 17109, 17123, 17133, 17139, 17144, 17148, 17149, 17152, 17154, 17177, 17183, 17186, 17189, 17197, 17200, 17203, 17214, 17221, 17249, 17264, 17265, 17270, 17286, 17294, 17297, 17304, 17307, 17318, 17321, 17326, 17330, 17339, 17347, 17349, 17376, 17397, 17398, 17407, 17412, 17413, 17423, 17429, 17430, 17431, 17441, 17451, 17453, 17454, 17456, 17486, 17511, 17523, 17529, 17530, 17533, 17539, 17555, 17557, 17558, 17572, 17575, 17579, 17581, 17585, 17587, 17591, 17592, 17593, 13822, 13831, 13839, 13869, 13897, 13898, 13924, 13941, 13951, 13957, 13989, 14003, 14025, 14075, 14082, 14123, 14137, 14167, 14189, 14203, 14204, 14211, 14227, 14236, 14278, 14286, 14288, 14292, 14306, 14399, 14463, 14481, 14490, 14511, 14553, 14554, 14565, 14574, 14588, 14591, 14627, 14628, 14629, 14649, 14655, 14656, 14679, 14682, 14684, 14715, 14717, 14718, 14722, 14740, 14821, 14842, 14846, 14862, 14875, 14989, 15046, 15069, 15092, 15097, 15129, 15182, 15191, 15193, 15197, 15220, 15229, 15246, 15269, 15277, 15282, 15302, 15313, 15322, 15326, 15339, 15368, 15386, 15388, 15425, 15430, 15436, 15449, 15451, 15507, 15624, 15629, 15678, 15736, 15760, 15770, 15782, 15794, 15809, 15821, 15825, 15826, 15832, 15842, 15882, 15885, 15902, 15923, 15937, 15938, 15954, 15956, 15959, 15977, 15988, 16001, 16010, 16050, 16089, 16106, 16120, 16144, 16148, 16151, 16166, 16190, 16192, 16208, 16217, 16222, 16225, 16250, 16295, 16302, 16363, 16417, 16441, 16488, 16509, 16525, 16530, 16541, 16569, 16584, 16595, 16606, 16613, 16631, 16633, 16634, 16670, 16675, 16691, 16716, 16727, 16750, 16763, 16783, 16823, 16839, 16841, 16866, 16868, 16870, 16879, 16913, 16914, 16919, 16921, 16961, 16982, 16989, 17006, 17011, 17013, 17016, 17042, 17069, 17084, 17087, 17102, 17113, 17114, 17127, 17142, 17165, 17204, 17223, 17258, 17261, 17287, 17306, 17320, 17382, 17399, 17420, 17442, 17487, 17498, 17512, 17516]
>>>>>>>start training : classification_PTB-XL-DCTOnly_DCTOnly_PTB-XL_ftM_sl96_ll48_pl96_dm128_nh8_el6_dl1_df256_fc1_ebtimeF_dtTrue_ServerDCTOnly_seed41>>>>>>>>>>>>>>>>>>>>>>>>>>
train ids: [3, 4, 7, 15, 18, 19, 24, 30, 32, 34, 39, 40, 42, 44, 46, 49, 50, 56, 57, 60, 61, 65, 66, 67, 76, 79, 82, 87, 88, 92, 105, 106, 107, 108, 109, 114, 115, 116, 117, 118, 119, 120, 121, 122, 126, 130, 134, 135, 138, 139, 148, 162, 165, 166, 168, 172, 173, 174, 175, 181, 182, 184, 185, 187, 188, 190, 197, 203, 204, 206, 208, 210, 211, 212, 213, 215, 219, 220, 221, 222, 224, 225, 227, 234, 237, 239, 240, 242, 243, 245, 246, 247, 248, 250, 252, 253, 254, 255, 256, 257, 258, 259, 260, 261, 263, 264, 265, 266, 267, 268, 272, 273, 274, 276, 277, 281, 282, 288, 292, 294, 295, 301, 303, 309, 312, 313, 314, 315, 316, 317, 319, 320, 321, 323, 325, 326, 328, 329, 330, 331, 334, 335, 337, 338, 340, 341, 343, 344, 345, 349, 350, 351, 352, 355, 357, 358, 362, 363, 365, 369, 370, 371, 372, 374, 376, 378, 380, 382, 383, 386, 388, 390, 392, 394, 395, 397, 398, 402, 404, 405, 406, 407, 410, 411, 417, 426, 428, 433, 435, 440, 442, 443, 444, 445, 449, 450, 451, 455, 456, 457, 466, 467, 469, 471, 472, 477, 478, 484, 486, 488, 489, 490, 492, 494, 495, 496, 497, 499, 501, 502, 503, 504, 507, 511, 512, 514, 517, 518, 520, 521, 522, 523, 524, 525, 528, 529, 530, 534, 535, 536, 541, 542, 543, 544, 545, 546, 549, 550, 552, 553, 554, 557, 558, 559, 560, 562, 564, 567, 571, 573, 574, 577, 578, 581, 583, 586, 588, 589, 591, 593, 596, 597, 601, 602, 604, 606, 608, 611, 612, 618, 620, 621, 625, 628, 629, 633, 634, 639, 641, 643, 645, 646, 647, 648, 649, 652, 654, 655, 660, 661, 662, 664, 665, 666, 668, 670, 671, 677, 681, 682, 683, 684, 685, 688, 689, 690, 692, 693, 695, 696, 697, 699, 702, 704, 708, 709, 711, 716, 717, 718, 719, 720, 725, 727, 728, 729, 730, 733, 734, 735, 738, 739, 742, 743, 744, 746, 748, 749, 752, 754, 757, 763, 771, 776, 777, 778, 779, 787, 789, 791, 798, 804, 808, 809, 810, 811, 812, 814, 818, 823, 826, 830, 831, 832, 833, 836, 837, 838, 841, 842, 849, 851, 852, 854, 855, 856, 860, 861, 862, 868, 872, 879, 880, 881, 884, 888, 892, 894, 895, 896, 899, 900, 902, 903, 905, 914, 915, 916, 917, 920, 922, 925, 926, 928, 931, 932, 934, 935, 938, 940, 942, 946, 947, 949, 950, 951, 952, 954, 955, 959, 960, 961, 962, 963, 964, 965, 969, 970, 971, 972, 973, 974, 975, 977, 980, 981, 986, 987, 988, 989, 990, 992, 994, 995, 997, 998, 1001, 1006, 1007, 1008, 1011, 1012, 1018, 1020, 1021, 1022, 1027, 1029, 1033, 1036, 1041, 1042, 1045, 1047, 1048, 1049, 1050, 1051, 1053, 1055, 1056, 1059, 1062, 1066, 1067, 1068, 1070, 1071, 1072, 1076, 1079, 1080, 1082, 1083, 1084, 1086, 1087, 1089, 1090, 1094, 1095, 1096, 1097, 1099, 1102, 1104, 1105, 1107, 1109, 1110, 1113, 1115, 1117, 1118, 1120, 1123, 1124, 1126, 1127, 1132, 1133, 1135, 1136, 1138, 1139, 1142, 1144, 1146, 1148, 1151, 1152, 1157, 1159, 1161, 1163, 1164, 1166, 1170, 1171, 1174, 1175, 1176, 1178, 1184, 1185, 1187, 1188, 1189, 1190, 1191, 1193, 1194, 1197, 1203, 1204, 1206, 1208, 1209, 1213, 1214, 1216, 1222, 1224, 1228, 1229, 1231, 1235, 1236, 1239, 1242, 1244, 1245, 1252, 1253, 1255, 1257, 1266, 1272, 1278, 1281, 1284, 1287, 1288, 1295, 1296, 1297, 1298, 1299, 1302, 1303, 1306, 1309, 1311, 1312, 1313, 1314, 1315, 1316, 1317, 1322, 1324, 1325, 1326, 1327, 1328, 1330, 1331, 1332, 1334, 1337, 1338, 1339, 1341, 1346, 1348, 1349, 1351, 1353, 1354, 1357, 1358, 1359, 1361, 1363, 1364, 1366, 1368, 1371, 1376, 1377, 1378, 1379, 1380, 1382, 1385, 1387, 1390, 1399, 1401, 1402, 1406, 1407, 1408, 1410, 1411, 1415, 1417, 1419, 1425, 1427, 1429, 1435, 1439, 1440, 1444, 1445, 1446, 1448, 1454, 1457, 1461, 1463, 1464, 1466, 1468, 1471, 1472, 1473, 1474, 1476, 1478, 1479, 1480, 1481, 1482, 1484, 1487, 1490, 1491, 1494, 1495, 1501, 1502, 1503, 1504, 1507, 1509, 1513, 1514, 1516, 1523, 1527, 1528, 1530, 1536, 1538, 1540, 1542, 1543, 1550, 1554, 1556, 1560, 1561, 1562, 1563, 1565, 1566, 1568, 1569, 1571, 1572, 1573, 1575, 1578, 1579, 1581, 1582, 1584, 1585, 1586, 1592, 1595, 1597, 1599, 1602, 1608, 1609, 1610, 1612, 1613, 1615, 1616, 1617, 1618, 1620, 1624, 1626, 1628, 1630, 1634, 1637, 1638, 1639, 1640, 1644, 1646, 1650, 1651, 1653, 1654, 1655, 1658, 1661, 1662, 1663, 1664, 1670, 1671, 1675, 1677, 1679, 1680, 1682, 1683, 1684, 1688, 1689, 1691, 1692, 1693, 1694, 1697, 1700, 1704, 1709, 1712, 1714, 1720, 1723, 1727, 1728, 1732, 1733, 1735, 1737, 1741, 1743, 1747, 1749, 1751, 1754, 1756, 1757, 1758, 1760, 1764, 1765, 1767, 1769, 1772, 1773, 1776, 1781, 1785, 1787, 1789, 1792, 1793, 1794, 1795, 1796, 1800, 1802, 1803, 1804, 1806, 1807, 1808, 1809, 1811, 1812, 1813, 1814, 1815, 1817, 1818, 1819, 1820, 1821, 1822, 1826, 1828, 1830, 1834, 1836, 1837, 1839, 1840, 1844, 1845, 1849, 1850, 1851, 1854, 1855, 1856, 1857, 1858, 1860, 1861, 1863, 1865, 1867, 1868, 1869, 1871, 1872, 1877, 1881, 1882, 1883, 1886, 1887, 1891, 1893, 1894, 1897, 1899, 1900, 1901, 1902, 1908, 1910, 1911, 1914, 1915, 1916, 1918, 1919, 1920, 1922, 1923, 1925, 1926, 1927, 1928, 1933, 1935, 1937, 1940, 1948, 1949, 1953, 1954, 1955, 1958, 1959, 1960, 1961, 1962, 1964, 1965, 1972, 1973, 1974, 1975, 1976, 1977, 1979, 1985, 1987, 1988, 1989, 1991, 1992, 1994, 2000, 2005, 2009, 2010, 2011, 2012, 2013, 2015, 2016, 2018, 2019, 2020, 2021, 2024, 2028, 2031, 2034, 2035, 2036, 2037, 2038, 2041, 2043, 2046, 2047, 2048, 2050, 2051, 2052, 2054, 2055, 2057, 2062, 2065, 2066, 2067, 2069, 2076, 2078, 2080, 2081, 2084, 2085, 2086, 2092, 2096, 2097, 2099, 2101, 2102, 2104, 2106, 2110, 2111, 2113, 2115, 2116, 2118, 2119, 2120, 2121, 2122, 2124, 2125, 2126, 2129, 2131, 2132, 2138, 2139, 2142, 2144, 2145, 2149, 2151, 2154, 2156, 2158, 2159, 2160, 2161, 2163, 2164, 2165, 2167, 2170, 2172, 2173, 2174, 2177, 2179, 2183, 2184, 2188, 2194, 2195, 2197, 2199, 2203, 2208, 2209, 2210, 2211, 2214, 2215, 2217, 2218, 2219, 2220, 2221, 2222, 2223, 2224, 2225, 2226, 2229, 2230, 2231, 2235, 2236, 2238, 2240, 2241, 2244, 2246, 2257, 2258, 2264, 2266, 2268, 2270, 2276, 2278, 2279, 2282, 2283, 2284, 2287, 2290, 2291, 2295, 2296, 2297, 2298, 2300, 2301, 2302, 2304, 2306, 2309, 2310, 2311, 2319, 2323, 2325, 2328, 2330, 2331, 2332, 2333, 2337, 2340, 2341, 2342, 2344, 2346, 2347, 2351, 2353, 2355, 2356, 2357, 2358, 2359, 2360, 2361, 2363, 2364, 2367, 2369, 2370, 2371, 2374, 2376, 2382, 2385, 2388, 2389, 2390, 2392, 2394, 2395, 2397, 2400, 2406, 2409, 2410, 2413, 2414, 2419, 2420, 2421, 2422, 2425, 2429, 2431, 2432, 2433, 2434, 2437, 2439, 2440, 2441, 2442, 2443, 2447, 2449, 2453, 2454, 2458, 2461, 2462, 2463, 2469, 2474, 2475, 2476, 2479, 2481, 2482, 2483, 2484, 2485, 2487, 2488, 2490, 2492, 2493, 2494, 2495, 2498, 2499, 2500, 2505, 2509, 2510, 2511, 2515, 2516, 2517, 2518, 2525, 2529, 2530, 2531, 2532, 2533, 2535, 2538, 2539, 2540, 2541, 2544, 2546, 2548, 2551, 2553, 2554, 2557, 2558, 2563, 2564, 2566, 2567, 2568, 2571, 2574, 2575, 2576, 2577, 2578, 2581, 2582, 2583, 2585, 2587, 2595, 2597, 2598, 2599, 2600, 2602, 2606, 2607, 2608, 2612, 2614, 2619, 2620, 2621, 2622, 2623, 2627, 2629, 2637, 2640, 2641, 2645, 2647, 2648, 2650, 2652, 2653, 2654, 2655, 2657, 2660, 2662, 2663, 2664, 2665, 2667, 2674, 2683, 2689, 2690, 2691, 2694, 2695, 2698, 2702, 2705, 2707, 2708, 2712, 2715, 2716, 2718, 2723, 2725, 2726, 2727, 2729, 2731, 2733, 2734, 2737, 2738, 2739, 2740, 2741, 2743, 2746, 2747, 2750, 2751, 2753, 2755, 2756, 2757, 2759, 2762, 2764, 2769, 2770, 2771, 2773, 2774, 2775, 2780, 2782, 2790, 2792, 2798, 2801, 2802, 2803, 2806, 2809, 2811, 2812, 2826, 2827, 2829, 2832, 2834, 2835, 2836, 2838, 2840, 2844, 2846, 2847, 2848, 2849, 2854, 2856, 2857, 2858, 2859, 2863, 2865, 2866, 2867, 2869, 2870, 2871, 2875, 2877, 2878, 2880, 2881, 2882, 2883, 2888, 2889, 2890, 2891, 2895, 2898, 2899, 2900, 2901, 2904, 2905, 2907, 2909, 2914, 2915, 2916, 2918, 2922, 2923, 2924, 2925, 2926, 2928, 2933, 2934, 2937, 2938, 2939, 2940, 2945, 2946, 2951, 2953, 2959, 2960, 2963, 2964, 2966, 2968, 2971, 2972, 2973, 2976, 2980, 2982, 2983, 2988, 2989, 2990, 2995, 2996, 2999, 3002, 3005, 3006, 3011, 3014, 3017, 3020, 3021, 3023, 3024, 3026, 3028, 3031, 3032, 3033, 3034, 3037, 3038, 3040, 3041, 3042, 3044, 3045, 3048, 3052, 3054, 3055, 3059, 3060, 3062, 3065, 3066, 3069, 3070, 3075, 3076, 3077, 3079, 3080, 3082, 3085, 3086, 3090, 3092, 3093, 3094, 3095, 3096, 3097, 3100, 3101, 3104, 3107, 3109, 3110, 3114, 3118, 3119, 3123, 3124, 3125, 3126, 3127, 3128, 3129, 3130, 3131, 3132, 3133, 3134, 3136, 3137, 3138, 3141, 3145, 3147, 3154, 3155, 3161, 3162, 3163, 3164, 3166, 3167, 3170, 3171, 3173, 3174, 3175, 3177, 3179, 3180, 3184, 3185, 3186, 3187, 3189, 3190, 3192, 3197, 3198, 3199, 3200, 3202, 3203, 3207, 3208, 3209, 3212, 3218, 3219, 3220, 3223, 3224, 3226, 3229, 3230, 3232, 3233, 3235, 3236, 3239, 3240, 3244, 3246, 3247, 3250, 3254, 3256, 3259, 3260, 3262, 3263, 3267, 3268, 3269, 3273, 3276, 3284, 3285, 3286, 3288, 3289, 3290, 3291, 3294, 3296, 3298, 3301, 3303, 3304, 3305, 3306, 3307, 3310, 3312, 3313, 3315, 3316, 3318, 3320, 3321, 3322, 3323, 3325, 3327, 3329, 3332, 3334, 3335, 3338, 3341, 3343, 3344, 3345, 3346, 3347, 3353, 3355, 3359, 3361, 3362, 3364, 3365, 3366, 3367, 3369, 3371, 3372, 3375, 3377, 3379, 3383, 3385, 3388, 3389, 3392, 3393, 3394, 3398, 3399, 3400, 3401, 3403, 3404, 3408, 3411, 3413, 3420, 3421, 3423, 3424, 3425, 3427, 3428, 3430, 3431, 3435, 3441, 3443, 3444, 3445, 3446, 3449, 3451, 3453, 3454, 3456, 3458, 3461, 3463, 3464, 3469, 3471, 3473, 3474, 3480, 3482, 3488, 3490, 3492, 3493, 3494, 3499, 3500, 3505, 3508, 3510, 3511, 3512, 3513, 3515, 3517, 3518, 3522, 3524, 3525, 3532, 3533, 3534, 3535, 3536, 3538, 3540, 3542, 3543, 3546, 3548, 3549, 3550, 3554, 3556, 3557, 3558, 3560, 3562, 3565, 3567, 3571, 3572, 3573, 3578, 3581, 3587, 3588, 3591, 3594, 3597, 3598, 3603, 3605, 3606, 3609, 3613, 3619, 3620, 3631, 3632, 3634, 3635, 3637, 3638, 3639, 3641, 3642, 3643, 3645, 3647, 3648, 3649, 3650, 3652, 3656, 3658, 3659, 3663, 3664, 3665, 3666, 3669, 3671, 3673, 3677, 3678, 3679, 3680, 3681, 3682, 3683, 3684, 3689, 3690, 3691, 3694, 3695, 3697, 3703, 3710, 3712, 3714, 3715, 3717, 3718, 3720, 3724, 3725, 3730, 3731, 3735, 3736, 3739, 3741, 3743, 3744, 3745, 3746, 3750, 3751, 3752, 3753, 3754, 3755, 3756, 3758, 3759, 3763, 3766, 3768, 3769, 3772, 3774, 3775, 3776, 3777, 3778, 3779, 3781, 3783, 3787, 3788, 3789, 3791, 3793, 3796, 3797, 3800, 3803, 3804, 3805, 3808, 3811, 3812, 3815, 3816, 3819, 3823, 3825, 3829, 3832, 3833, 3834, 3836, 3837, 3840, 3841, 3842, 3848, 3851, 3852, 3853, 3856, 3858, 3865, 3867, 3868, 3873, 3874, 3875, 3879, 3885, 3889, 3890, 3891, 3896, 3897, 3898, 3899, 3901, 3905, 3906, 3907, 3908, 3910, 3912, 3914, 3920, 3921, 3923, 3926, 3928, 3930, 3933, 3936, 3937, 3939, 3940, 3941, 3944, 3947, 3948, 3949, 3950, 3952, 3955, 3958, 3959, 3963, 3964, 3965, 3967, 3970, 3973, 3974, 3978, 3982, 3983, 3986, 3987, 3988, 3990, 3993, 3994, 3996, 3998, 4000, 4001, 4004, 4005, 4006, 4007, 4008, 4010, 4011, 4012, 4015, 4016, 4017, 4018, 4020, 4022, 4023, 4024, 4026, 4027, 4028, 4031, 4032, 4033, 4035, 4040, 4041, 4042, 4043, 4045, 4046, 4049, 4054, 4056, 4058, 4060, 4061, 4063, 4065, 4068, 4069, 4071, 4075, 4076, 4078, 4079, 4082, 4083, 4085, 4092, 4094, 4096, 4097, 4100, 4104, 4105, 4107, 4109, 4110, 4111, 4112, 4113, 4115, 4116, 4117, 4118, 4120, 4121, 4122, 4125, 4126, 4127, 4133, 4135, 4136, 4137, 4139, 4140, 4141, 4142, 4148, 4149, 4155, 4156, 4158, 4159, 4161, 4162, 4163, 4164, 4167, 4168, 4170, 4176, 4177, 4180, 4183, 4185, 4188, 4189, 4190, 4191, 4194, 4195, 4196, 4198, 4199, 4200, 4202, 4204, 4205, 4210, 4212, 4213, 4214, 4218, 4220, 4221, 4224, 4226, 4230, 4232, 4235, 4237, 4238, 4240, 4241, 4243, 4244, 4247, 4248, 4250, 4252, 4258, 4260, 4262, 4263, 4265, 4266, 4267, 4278, 4279, 4280, 4282, 4283, 4284, 4287, 4289, 4296, 4297, 4299, 4302, 4304, 4305, 4306, 4308, 4309, 4312, 4318, 4321, 4324, 4325, 4326, 4330, 4332, 4337, 4345, 4346, 4348, 4349, 4350, 4354, 4355, 4356, 4357, 4360, 4361, 4363, 4364, 4365, 4367, 4368, 4369, 4371, 4375, 4376, 4378, 4379, 4380, 4381, 4386, 4390, 4391, 4393, 4399, 4400, 4404, 4406, 4408, 4409, 4410, 4411, 4414, 4415, 4418, 4420, 4426, 4427, 4428, 4429, 4430, 4431, 4432, 4433, 4435, 4436, 4439, 4442, 4447, 4448, 4453, 4455, 4456, 4457, 4459, 4460, 4463, 4469, 4475, 4479, 4483, 4486, 4487, 4489, 4490, 4493, 4495, 4500, 4501, 4503, 4504, 4509, 4510, 4511, 4512, 4514, 4519, 4523, 4525, 4527, 4528, 4529, 4530, 4534, 4535, 4536, 4540, 4544, 4545, 4548, 4549, 4550, 4552, 4553, 4558, 4561, 4563, 4566, 4567, 4568, 4569, 4571, 4576, 4578, 4579, 4585, 4586, 4589, 4594, 4598, 4600, 4602, 4609, 4610, 4613, 4617, 4623, 4626, 4627, 4628, 4631, 4632, 4635, 4638, 4643, 4644, 4645, 4646, 4652, 4653, 4655, 4656, 4657, 4658, 4661, 4665, 4670, 4672, 4675, 4677, 4680, 4682, 4683, 4687, 4690, 4692, 4694, 4695, 4696, 4699, 4700, 4701, 4702, 4707, 4709, 4710, 4711, 4712, 4713, 4715, 4717, 4718, 4722, 4725, 4726, 4727, 4731, 4733, 4737, 4740, 4743, 4744, 4747, 4748, 4749, 4751, 4753, 4755, 4756, 4757, 4758, 4761, 4765, 4766, 4767, 4769, 4770, 4774, 4775, 4776, 4780, 4782, 4783, 4788, 4790, 4792, 4793, 4794, 4796, 4797, 4799, 4800, 4802, 4803, 4804, 4806, 4808, 4809, 4810, 4818, 4822, 4823, 4824, 4825, 4826, 4828, 4829, 4830, 4831, 4833, 4835, 4837, 4838, 4841, 4846, 4851, 4854, 4856, 4863, 4865, 4870, 4871, 4873, 4874, 4875, 4876, 4878, 4880, 4881, 4882, 4884, 4886, 4887, 4888, 4889, 4890, 4891, 4893, 4894, 4896, 4898, 4899, 4900, 4901, 4907, 4908, 4914, 4917, 4920, 4924, 4927, 4935, 4936, 4939, 4943, 4946, 4949, 4952, 4953, 4955, 4956, 4961, 4963, 4964, 4966, 4974, 4980, 4982, 4984, 4986, 4989, 4990, 4996, 4997, 4999, 5001, 5005, 5006, 5007, 5008, 5010, 5011, 5012, 5013, 5015, 5016, 5019, 5020, 5022, 5024, 5025, 5028, 5029, 5030, 5031, 5039, 5041, 5046, 5047, 5049, 5050, 5052, 5053, 5057, 5062, 5063, 5064, 5067, 5072, 5073, 5076, 5078, 5082, 5083, 5085, 5086, 5088, 5090, 5092, 5093, 5095, 5096, 5097, 5100, 5102, 5104, 5107, 5109, 5112, 5113, 5116, 5118, 5119, 5120, 5122, 5123, 5125, 5130, 5133, 5135, 5137, 5143, 5144, 5145, 5147, 5150, 5153, 5154, 5158, 5159, 5160, 5161, 5162, 5165, 5167, 5168, 5169, 5171, 5173, 5176, 5177, 5183, 5184, 5185, 5193, 5194, 5196, 5198, 5200, 5201, 5202, 5204, 5206, 5207, 5209, 5214, 5216, 5218, 5220, 5221, 5223, 5227, 5230, 5237, 5238, 5239, 5241, 5242, 5252, 5253, 5254, 5265, 5266, 5268, 5269, 5270, 5271, 5273, 5274, 5280, 5281, 5282, 5287, 5288, 5289, 5290, 5291, 5292, 5296, 5297, 5298, 5301, 5304, 5307, 5313, 5314, 5316, 5318, 5321, 5323, 5329, 5330, 5331, 5332, 5333, 5336, 5337, 5340, 5341, 5344, 5345, 5348, 5350, 5351, 5356, 5357, 5363, 5365, 5367, 5369, 5372, 5375, 5381, 5384, 5386, 5388, 5389, 5391, 5392, 5395, 5397, 5402, 5405, 5411, 5412, 5413, 5418, 5419, 5421, 5423, 5424, 5425, 5426, 5428, 5430, 5432, 5433, 5434, 5437, 5439, 5440, 5441, 5442, 5444, 5445, 5450, 5451, 5452, 5454, 5455, 5456, 5457, 5458, 5459, 5462, 5465, 5467, 5468, 5470, 5471, 5473, 5474, 5475, 5476, 5478, 5480, 5481, 5483, 5486, 5488, 5490, 5492, 5493, 5494, 5495, 5497, 5499, 5500, 5507, 5509, 5510, 5511, 5512, 5517, 5519, 5520, 5521, 5522, 5526, 5528, 5529, 5530, 5532, 5535, 5537, 5540, 5542, 5544, 5545, 5546, 5549, 5550, 5552, 5554, 5555, 5557, 5558, 5560, 5562, 5563, 5564, 5565, 5567, 5568, 5569, 5574, 5576, 5577, 5579, 5581, 5582, 5583, 5587, 5590, 5591, 5592, 5597, 5599, 5601, 5606, 5612, 5615, 5616, 5617, 5620, 5623, 5624, 5630, 5634, 5638, 5643, 5644, 5646, 5647, 5651, 5656, 5659, 5662, 5663, 5671, 5676, 5678, 5685, 5694, 5696, 5697, 5698, 5699, 5700, 5701, 5702, 5703, 5706, 5709, 5712, 5715, 5718, 5720, 5722, 5725, 5726, 5728, 5729, 5736, 5738, 5739, 5740, 5742, 5745, 5746, 5748, 5749, 5755, 5757, 5758, 5759, 5761, 5763, 5765, 5766, 5769, 5773, 5775, 5777, 5779, 5781, 5782, 5783, 5785, 5787, 5789, 5791, 5792, 5796, 5798, 5800, 5802, 5803, 5805, 5811, 5812, 5813, 5817, 5818, 5819, 5827, 5828, 5830, 5831, 5834, 5835, 5837, 5840, 5841, 5844, 5845, 5846, 5847, 5854, 5855, 5856, 5857, 5858, 5860, 5870, 5873, 5878, 5879, 5881, 5883, 5885, 5887, 5888, 5890, 5891, 5892, 5894, 5895, 5898, 5899, 5903, 5904, 5907, 5908, 5910, 5911, 5916, 5917, 5919, 5920, 5923, 5926, 5930, 5934, 5936, 5938, 5941, 5942, 5943, 5944, 5945, 5948, 5950, 5952, 5954, 5955, 5958, 5960, 5961, 5966, 5967, 5969, 5971, 5975, 5977, 5978, 5979, 5980, 5983, 5985, 5986, 5988, 5990, 5992, 5994, 5997, 5998, 6001, 6002, 6004, 6006, 6007, 6008, 6009, 6011, 6015, 6018, 6020, 6022, 6024, 6029, 6030, 6031, 6034, 6037, 6039, 6041, 6043, 6044, 6047, 6048, 6049, 6050, 6052, 6054, 6055, 6058, 6060, 6063, 6064, 6065, 6067, 6068, 6069, 6070, 6071, 6073, 6075, 6077, 6078, 6080, 6082, 6084, 6087, 6093, 6094, 6100, 6102, 6106, 6107, 6109, 6111, 6113, 6114, 6120, 6121, 6123, 6125, 6126, 6127, 6129, 6130, 6131, 6135, 6139, 6140, 6141, 6142, 6143, 6144, 6145, 6147, 6148, 6149, 6150, 6151, 6154, 6155, 6159, 6160, 6161, 6164, 6167, 6168, 6169, 6170, 6171, 6172, 6173, 6175, 6176, 6179, 6181, 6186, 6189, 6190, 6192, 6193, 6198, 6199, 6203, 6204, 6209, 6210, 6216, 6219, 6221, 6222, 6226, 6227, 6230, 6231, 6232, 6233, 6236, 6238, 6239, 6242, 6247, 6248, 6252, 6260, 6264, 6266, 6267, 6269, 6273, 6274, 6281, 6286, 6287, 6288, 6289, 6294, 6296, 6301, 6302, 6303, 6304, 6307, 6309, 6310, 6312, 6314, 6315, 6316, 6320, 6326, 6327, 6328, 6330, 6338, 6339, 6344, 6345, 6346, 6348, 6354, 6355, 6364, 6366, 6367, 6373, 6376, 6377, 6378, 6382, 6384, 6385, 6387, 6388, 6393, 6398, 6399, 6406, 6408, 6412, 6413, 6416, 6419, 6420, 6426, 6428, 6429, 6432, 6434, 6435, 6440, 6441, 6442, 6447, 6448, 6453, 6454, 6458, 6461, 6463, 6467, 6468, 6469, 6472, 6473, 6474, 6475, 6476, 6480, 6487, 6489, 6490, 6494, 6495, 6498, 6501, 6502, 6505, 6511, 6515, 6518, 6521, 6523, 6525, 6526, 6527, 6530, 6531, 6532, 6534, 6535, 6538, 6539, 6540, 6542, 6543, 6544, 6545, 6549, 6551, 6552, 6553, 6556, 6557, 6558, 6559, 6560, 6563, 6564, 6566, 6568, 6569, 6570, 6571, 6572, 6573, 6578, 6580, 6581, 6582, 6583, 6584, 6585, 6586, 6587, 6590, 6591, 6592, 6594, 6596, 6597, 6598, 6600, 6602, 6606, 6607, 6608, 6609, 6610, 6612, 6613, 6619, 6620, 6622, 6623, 6625, 6626, 6627, 6628, 6630, 6631, 6633, 6639, 6643, 6647, 6648, 6649, 6652, 6653, 6655, 6658, 6662, 6664, 6669, 6672, 6673, 6676, 6677, 6678, 6679, 6685, 6686, 6687, 6688, 6691, 6694, 6695, 6696, 6698, 6705, 6708, 6711, 6712, 6714, 6717, 6722, 6723, 6727, 6728, 6729, 6730, 6734, 6739, 6741, 6742, 6744, 6750, 6760, 6763, 6764, 6765, 6770, 6771, 6777, 6778, 6779, 6782, 6785, 6786, 6787, 6789, 6792, 6793, 6800, 6805, 6806, 6807, 6808, 6810, 6811, 6812, 6814, 6817, 6819, 6820, 6821, 6823, 6825, 6826, 6829, 6830, 6832, 6833, 6835, 6836, 6837, 6839, 6843, 6846, 6847, 6854, 6858, 6859, 6861, 6863, 6864, 6868, 6871, 6874, 6875, 6876, 6877, 6881, 6882, 6883, 6884, 6885, 6887, 6888, 6891, 6892, 6893, 6894, 6896, 6897, 6900, 6901, 6905, 6908, 6910, 6911, 6913, 6914, 6917, 6919, 6921, 6924, 6925, 6926, 6927, 6930, 6934, 6936, 6937, 6943, 6944, 6947, 6949, 6953, 6954, 6956, 6959, 6961, 6962, 6964, 6965, 6966, 6968, 6970, 6972, 6976, 6977, 6979, 6983, 6987, 6988, 6990, 6991, 6993, 6994, 6995, 6996, 6997, 6998, 6999, 7000, 7008, 7019, 7021, 7022, 7026, 7028, 7030, 7031, 7037, 7038, 7040, 7041, 7044, 7046, 7049, 7051, 7052, 7054, 7060, 7061, 7062, 7068, 7070, 7071, 7073, 7076, 7077, 7083, 7085, 7088, 7089, 7091, 7092, 7094, 7095, 7096, 7097, 7099, 7101, 7103, 7108, 7110, 7112, 7114, 7115, 7116, 7117, 7118, 7119, 7121, 7123, 7124, 7125, 7126, 7127, 7128, 7134, 7137, 7138, 7139, 7142, 7145, 7148, 7150, 7153, 7155, 7162, 7163, 7164, 7165, 7167, 7168, 7170, 7173, 7174, 7176, 7179, 7180, 7181, 7183, 7184, 7185, 7186, 7189, 7191, 7199, 7201, 7203, 7207, 7208, 7212, 7213, 7214, 7218, 7220, 7221, 7223, 7224, 7226, 7227, 7229, 7231, 7236, 7237, 7241, 7242, 7245, 7246, 7250, 7251, 7253, 7254, 7257, 7258, 7260, 7261, 7266, 7267, 7270, 7271, 7272, 7273, 7275, 7278, 7280, 7283, 7285, 7286, 7287, 7289, 7290, 7292, 7293, 7294, 7299, 7300, 7303, 7304, 7306, 7309, 7311, 7312, 7314, 7316, 7321, 7323, 7326, 7328, 7329, 7330, 7332, 7333, 7334, 7339, 7341, 7344, 7346, 7347, 7349, 7350, 7351, 7357, 7359, 7364, 7367, 7369, 7371, 7372, 7376, 7380, 7383, 7385, 7386, 7387, 7388, 7396, 7400, 7401, 7402, 7403, 7404, 7406, 7414, 7415, 7416, 7417, 7422, 7423, 7425, 7426, 7427, 7430, 7431, 7432, 7434, 7435, 7438, 7439, 7440, 7442, 7444, 7445, 7446, 7448, 7451, 7455, 7456, 7457, 7459, 7461, 7465, 7467, 7468, 7470, 7472, 7474, 7476, 7478, 7479, 7480, 7481, 7482, 7487, 7488, 7492, 7493, 7497, 7499, 7501, 7502, 7503, 7505, 7506, 7509, 7511, 7513, 7516, 7518, 7521, 7522, 7526, 7528, 7530, 7531, 7535, 7536, 7537, 7538, 7543, 7548, 7549, 7551, 7552, 7554, 7556, 7557, 7558, 7560, 7561, 7563, 7566, 7567, 7569, 7579, 7580, 7583, 7585, 7586, 7587, 7588, 7591, 7592, 7594, 7595, 7602, 7605, 7607, 7612, 7613, 7614, 7615, 7617, 7618, 7620, 7621, 7622, 7624, 7626, 7627, 7633, 7643, 7644, 7645, 7646, 7648, 7649, 7650, 7654, 7656, 7657, 7660, 7662, 7663, 7665, 7666, 7667, 7673, 7674, 7675, 7676, 7677, 7678, 7683, 7684, 7685, 7687, 7689, 7690, 7692, 7695, 7696, 7697, 7698, 7699, 7700, 7701, 7703, 7706, 7707, 7708, 7709, 7712, 7719, 7721, 7726, 7727, 7730, 7732, 7734, 7735, 7737, 7738, 7739, 7740, 7745, 7750, 7751, 7752, 7753, 7759, 7760, 7763, 7764, 7769, 7772, 7773, 7774, 7782, 7784, 7785, 7786, 7787, 7788, 7789, 7791, 7794, 7795, 7796, 7799, 7801, 7806, 7808, 7810, 7812, 7814, 7816, 7818, 7819, 7820, 7826, 7829, 7830, 7832, 7834, 7835, 7836, 7839, 7840, 7843, 7844, 7845, 7847, 7852, 7854, 7855, 7856, 7858, 7860, 7862, 7866, 7868, 7869, 7872, 7875, 7877, 7880, 7881, 7882, 7886, 7889, 7890, 7892, 7893, 7909, 7910, 7913, 7914, 7917, 7918, 7922, 7924, 7925, 7926, 7930, 7932, 7933, 7934, 7940, 7944, 7945, 7947, 7948, 7953, 7954, 7959, 7963, 7966, 7967, 7969, 7971, 7973, 7974, 7975, 7976, 7977, 7980, 7981, 7982, 7983, 7984, 7985, 7987, 7988, 7994, 7998, 8001, 8005, 8007, 8008, 8010, 8011, 8012, 8013, 8014, 8017, 8018, 8019, 8021, 8024, 8025, 8027, 8029, 8030, 8031, 8033, 8034, 8035, 8036, 8037, 8038, 8040, 8042, 8044, 8045, 8046, 8049, 8050, 8051, 8052, 8056, 8060, 8063, 8066, 8077, 8082, 8084, 8085, 8086, 8090, 8092, 8095, 8099, 8100, 8101, 8102, 8104, 8105, 8107, 8110, 8111, 8112, 8113, 8116, 8118, 8120, 8123, 8125, 8128, 8130, 8131, 8133, 8136, 8138, 8139, 8141, 8142, 8143, 8146, 8147, 8149, 8151, 8152, 8154, 8157, 8162, 8164, 8167, 8169, 8170, 8171, 8172, 8173, 8174, 8175, 8178, 8179, 8184, 8190, 8193, 8194, 8196, 8198, 8200, 8201, 8202, 8203, 8204, 8206, 8213, 8215, 8216, 8217, 8220, 8221, 8223, 8225, 8227, 8229, 8233, 8234, 8239, 8241, 8244, 8247, 8251, 8252, 8254, 8256, 8259, 8260, 8261, 8262, 8263, 8268, 8269, 8271, 8275, 8278, 8279, 8281, 8282, 8283, 8284, 8286, 8287, 8289, 8291, 8293, 8295, 8299, 8301, 8302, 8305, 8306, 8307, 8308, 8312, 8313, 8314, 8316, 8319, 8323, 8324, 8330, 8337, 8339, 8342, 8347, 8349, 8350, 8351, 8352, 8353, 8357, 8358, 8361, 8366, 8367, 8368, 8371, 8372, 8373, 8374, 8375, 8376, 8382, 8384, 8385, 8388, 8389, 8390, 8393, 8394, 8395, 8400, 8401, 8403, 8406, 8409, 8412, 8413, 8414, 8416, 8417, 8419, 8420, 8427, 8428, 8430, 8437, 8438, 8440, 8443, 8446, 8449, 8451, 8454, 8455, 8456, 8460, 8462, 8464, 8465, 8467, 8469, 8473, 8476, 8477, 8483, 8486, 8488, 8489, 8490, 8496, 8498, 8499, 8500, 8502, 8505, 8508, 8517, 8526, 8527, 8528, 8529, 8531, 8532, 8536, 8537, 8539, 8540, 8542, 8543, 8544, 8546, 8548, 8551, 8552, 8556, 8558, 8559, 8560, 8561, 8563, 8566, 8567, 8568, 8569, 8570, 8573, 8575, 8576, 8577, 8578, 8579, 8585, 8587, 8588, 8591, 8593, 8594, 8595, 8596, 8598, 8601, 8602, 8606, 8610, 8611, 8615, 8617, 8618, 8620, 8623, 8624, 8631, 8634, 8636, 8637, 8638, 8641, 8642, 8644, 8645, 8647, 8648, 8649, 8652, 8653, 8654, 8655, 8656, 8658, 8660, 8661, 8662, 8663, 8668, 8669, 8671, 8675, 8676, 8678, 8679, 8682, 8685, 8687, 8688, 8689, 8691, 8692, 8696, 8699, 8700, 8706, 8709, 8710, 8711, 8712, 8713, 8716, 8718, 8720, 8722, 8723, 8724, 8728, 8729, 8740, 8742, 8743, 8749, 8750, 8751, 8752, 8753, 8755, 8756, 8757, 8758, 8759, 8761, 8762, 8763, 8764, 8766, 8770, 8773, 8775, 8776, 8777, 8779, 8780, 8783, 8784, 8785, 8787, 8788, 8790, 8795, 8796, 8799, 8801, 8802, 8803, 8806, 8807, 8808, 8811, 8812, 8814, 8818, 8820, 8824, 8828, 8829, 8830, 8831, 8832, 8835, 8839, 8840, 8841, 8842, 8844, 8848, 8851, 8853, 8854, 8855, 8858, 8863, 8864, 8865, 8868, 8869, 8870, 8872, 8874, 8876, 8877, 8879, 8880, 8881, 8884, 8886, 8888, 8889, 8892, 8894, 8896, 8901, 8903, 8904, 8905, 8906, 8908, 8910, 8914, 8918, 8920, 8923, 8926, 8928, 8930, 8933, 8938, 8939, 8941, 8942, 8943, 8944, 8946, 8947, 8949, 8951, 8953, 8954, 8955, 8956, 8958, 8959, 8961, 8963, 8965, 8966, 8967, 8968, 8969, 8971, 8972, 8974, 8975, 8976, 8979, 8981, 8984, 8985, 8986, 8987, 8990, 8991, 8992, 8993, 8995, 8997, 9005, 9006, 9007, 9009, 9010, 9011, 9014, 9016, 9019, 9020, 9021, 9022, 9023, 9026, 9027, 9029, 9031, 9035, 9037, 9040, 9042, 9043, 9044, 9045, 9047, 9048, 9049, 9055, 9057, 9059, 9061, 9063, 9064, 9065, 9068, 9069, 9071, 9072, 9077, 9082, 9083, 9089, 9092, 9094, 9095, 9100, 9106, 9108, 9109, 9110, 9113, 9114, 9115, 9116, 9117, 9122, 9125, 9126, 9130, 9131, 9137, 9138, 9139, 9140, 9143, 9144, 9146, 9154, 9156, 9158, 9159, 9164, 9174, 9176, 9180, 9181, 9184, 9185, 9186, 9187, 9188, 9191, 9192, 9193, 9195, 9204, 9205, 9206, 9213, 9214, 9216, 9217, 9219, 9222, 9224, 9225, 9228, 9229, 9233, 9235, 9236, 9237, 9240, 9245, 9247, 9248, 9249, 9250, 9251, 9252, 9253, 9254, 9255, 9257, 9258, 9259, 9261, 9265, 9271, 9272, 9274, 9275, 9279, 9282, 9283, 9284, 9287, 9289, 9292, 9293, 9301, 9302, 9304, 9308, 9309, 9310, 9311, 9312, 9313, 9314, 9318, 9319, 9321, 9323, 9329, 9332, 9335, 9337, 9338, 9339, 9341, 9344, 9345, 9346, 9347, 9348, 9351, 9352, 9353, 9354, 9356, 9358, 9359, 9360, 9363, 9366, 9369, 9371, 9373, 9374, 9375, 9379, 9380, 9381, 9382, 9394, 9395, 9397, 9398, 9400, 9403, 9405, 9407, 9408, 9411, 9414, 9415, 9417, 9419, 9420, 9425, 9427, 9429, 9433, 9434, 9435, 9436, 9439, 9440, 9442, 9443, 9445, 9446, 9449, 9450, 9453, 9454, 9455, 9456, 9458, 9461, 9462, 9464, 9465, 9466, 9474, 9478, 9479, 9481, 9485, 9491, 9494, 9495, 9496, 9500, 9501, 9502, 9503, 9504, 9507, 9508, 9510, 9511, 9512, 9514, 9515, 9519, 9521, 9522, 9526, 9528, 9530, 9535, 9539, 9540, 9541, 9542, 9543, 9544, 9545, 9550, 9553, 9554, 9556, 9558, 9561, 9566, 9568, 9573, 9574, 9575, 9576, 9578, 9579, 9583, 9584, 9585, 9586, 9587, 9589, 9590, 9595, 9603, 9606, 9608, 9610, 9611, 9614, 9621, 9622, 9623, 9626, 9628, 9630, 9634, 9640, 9641, 9645, 9647, 9648, 9650, 9651, 9652, 9657, 9660, 9663, 9664, 9665, 9667, 9669, 9670, 9673, 9674, 9675, 9677, 9678, 9679, 9682, 9684, 9685, 9686, 9687, 9690, 9691, 9693, 9694, 9697, 9698, 9699, 9700, 9705, 9707, 9709, 9710, 9711, 9714, 9715, 9717, 9718, 9719, 9725, 9726, 9736, 9738, 9739, 9740, 9742, 9745, 9746, 9747, 9748, 9750, 9754, 9755, 9758, 9768, 9774, 9777, 9778, 9780, 9782, 9784, 9785, 9786, 9787, 9790, 9802, 9806, 9807, 9813, 9815, 9826, 9828, 9829, 9831, 9833, 9834, 9835, 9836, 9839, 9840, 9841, 9842, 9846, 9847, 9849, 9851, 9852, 9853, 9855, 9856, 9857, 9860, 9862, 9866, 9870, 9871, 9873, 9878, 9879, 9884, 9885, 9888, 9890, 9895, 9896, 9899, 9902, 9903, 9904, 9905, 9907, 9909, 9912, 9913, 9916, 9921, 9922, 9923, 9924, 9927, 9930, 9931, 9936, 9938, 9939, 9941, 9943, 9944, 9948, 9951, 9955, 9956, 9957, 9958, 9959, 9960, 9961, 9964, 9965, 9966, 9970, 9972, 9974, 9979, 9981, 9982, 9984, 9985, 9987, 9990, 9992, 9995, 9996, 9998, 9999, 10000, 10004, 10005, 10010, 10011, 10012, 10014, 10016, 10020, 10024, 10026, 10027, 10030, 10031, 10032, 10033, 10034, 10035, 10036, 10038, 10040, 10041, 10042, 10043, 10045, 10046, 10047, 10049, 10050, 10052, 10054, 10055, 10060, 10062, 10064, 10067, 10071, 10073, 10074, 10076, 10077, 10080, 10081, 10084, 10089, 10090, 10091, 10095, 10096, 10099, 10103, 10105, 10106, 10107, 10110, 10112, 10114, 10117, 10118, 10125, 10126, 10127, 10133, 10135, 10136, 10138, 10139, 10141, 10144, 10147, 10148, 10150, 10151, 10152, 10161, 10162, 10163, 10164, 10167, 10170, 10172, 10175, 10177, 10178, 10181, 10184, 10185, 10186, 10187, 10188, 10191, 10192, 10194, 10195, 10196, 10197, 10201, 10202, 10204, 10205, 10206, 10208, 10209, 10210, 10212, 10214, 10215, 10217, 10218, 10219, 10223, 10224, 10226, 10228, 10230, 10233, 10234, 10235, 10237, 10238, 10239, 10240, 10241, 10242, 10246, 10247, 10248, 10250, 10252, 10253, 10254, 10261, 10265, 10268, 10269, 10270, 10275, 10277, 10279, 10285, 10288, 10290, 10291, 10293, 10295, 10296, 10297, 10299, 10300, 10302, 10303, 10305, 10306, 10313, 10314, 10315, 10317, 10320, 10321, 10324, 10326, 10328, 10329, 10331, 10334, 10336, 10339, 10340, 10344, 10347, 10355, 10356, 10357, 10361, 10363, 10365, 10369, 10370, 10371, 10372, 10374, 10378, 10379, 10381, 10383, 10385, 10387, 10388, 10390, 10391, 10392, 10395, 10397, 10399, 10400, 10401, 10403, 10404, 10406, 10407, 10414, 10415, 10417, 10418, 10419, 10423, 10424, 10427, 10430, 10433, 10434, 10436, 10442, 10443, 10444, 10445, 10446, 10448, 10451, 10459, 10460, 10463, 10464, 10467, 10468, 10469, 10470, 10471, 10472, 10473, 10475, 10476, 10479, 10487, 10488, 10489, 10490, 10491, 10494, 10495, 10498, 10504, 10511, 10516, 10522, 10523, 10527, 10529, 10530, 10531, 10532, 10533, 10534, 10537, 10540, 10541, 10542, 10544, 10545, 10547, 10548, 10556, 10559, 10560, 10567, 10568, 10569, 10570, 10572, 10583, 10585, 10588, 10589, 10590, 10594, 10596, 10598, 10599, 10602, 10603, 10604, 10605, 10609, 10615, 10616, 10619, 10620, 10622, 10630, 10631, 10632, 10633, 10636, 10639, 10641, 10645, 10646, 10647, 10648, 10649, 10650, 10651, 6, 8, 13, 16, 22, 26, 27, 29, 55, 58, 62, 63, 64, 70, 71, 72, 73, 74, 75, 89, 90, 95, 97, 100, 103, 104, 113, 127, 128, 136, 137, 140, 144, 147, 150, 153, 154, 157, 161, 164, 167, 169, 180, 207, 218, 223, 226, 238, 244, 302, 304, 318, 327, 342, 364, 373, 385, 389, 391, 408, 412, 415, 416, 423, 429, 436, 460, 461, 465, 475, 480, 481, 482, 500, 526, 537, 538, 555, 563, 569, 570, 579, 587, 610, 619, 622, 623, 626, 630, 631, 637, 638, 650, 653, 672, 679, 700, 707, 712, 713, 715, 726, 741, 751, 753, 760, 765, 766, 772, 774, 781, 782, 783, 785, 799, 813, 819, 822, 825, 835, 839, 845, 847, 848, 850, 858, 863, 866, 867, 870, 873, 883, 890, 891, 897, 898, 904, 923, 930, 936, 945, 958, 967, 968, 978, 979, 982, 983, 1000, 1004, 1005, 1009, 1010, 1013, 1016, 1023, 1028, 1063, 1065, 1075, 1077, 1092, 1112, 1119, 1131, 1137, 1154, 1179, 1180, 1199, 1202, 1212, 1226, 1227, 1237, 1238, 1240, 1249, 1251, 1254, 1261, 1263, 1264, 1267, 1269, 1279, 1282, 1304, 1308, 1321, 1336, 1355, 1362, 1370, 1372, 1374, 1384, 1395, 1396, 1413, 1416, 1418, 1420, 1433, 1443, 1456, 1458, 1460, 1467, 1470, 1488, 1492, 1498, 1499, 1511, 1515, 1519, 1529, 1533, 1535, 1539, 1541, 1545, 1549, 1557, 1580, 1588, 1589, 1591, 1605, 1607, 1611, 1614, 1619, 1622, 1641, 1642, 1643, 1645, 1648, 1649, 1681, 1685, 1701, 1716, 1722, 1725, 1726, 1729, 1731, 1738, 1742, 1745, 1748, 1752, 1755, 1762, 1763, 1771, 1778, 1786, 1788, 1790, 1791, 1805, 1825, 1827, 1831, 1833, 1848, 1852, 1853, 1859, 1878, 1879, 1890, 1895, 1898, 1905, 1909, 1930, 1934, 1936, 1939, 1968, 1969, 1970, 1981, 1983, 1986, 2001, 2006, 2027, 2040, 2049, 2056, 2074, 2083, 2093, 2128, 2135, 2136, 2143, 2148, 2175, 2178, 2182, 2186, 2189, 2193, 2202, 2204, 2206, 2216, 2232, 2233, 2239, 2247, 2250, 2251, 2267, 2274, 2275, 2286, 2288, 2294, 2303, 2305, 2313, 2316, 2322, 2336, 2345, 2368, 2391, 2398, 2399, 2404, 2407, 2417, 2444, 2448, 2460, 2464, 2473, 2501, 2504, 2507, 2512, 2514, 2519, 2521, 2524, 2559, 2561, 2586, 2588, 2601, 2604, 2610, 2611, 2632, 2642, 2658, 2671, 2676, 2680, 2686, 2693, 2701, 2704, 2713, 2719, 2735, 2736, 2745, 2766, 2781, 2791, 2796, 2814, 2816, 2818, 2830, 2837, 2842, 2851, 2852, 2855, 2861, 2879, 2897, 2902, 2906, 2908, 2911, 2919, 2927, 2929, 2942, 2943, 2944, 2950, 2954, 2967, 2975, 2986, 2998, 3004, 3007, 3010, 3015, 3018, 3035, 3053, 3056, 3073, 3078, 3103, 3112, 3120, 3148, 3165, 3188, 3191, 3201, 3205, 3206, 3210, 3211, 3214, 3215, 3216, 3222, 3225, 3228, 3231, 3237, 3238, 3242, 3251, 3258, 3266, 3271, 3302, 3308, 3328, 3331, 3348, 3354, 3357, 3358, 3370, 3373, 3381, 3386, 3390, 3407, 3417, 3418, 3432, 3434, 3438, 3457, 3462, 3466, 3470, 3472, 3481, 3498, 3501, 3502, 3503, 3514, 3519, 3521, 3527, 3529, 3537, 3539, 3541, 3551, 3555, 3561, 3575, 3576, 3577, 3583, 3585, 3586, 3590, 3602, 3604, 3612, 3615, 3617, 3621, 3624, 3627, 3646, 3654, 3660, 3661, 3667, 3674, 3698, 3702, 3709, 3723, 3742, 3747, 3790, 3795, 3798, 3802, 3822, 3828, 3845, 3855, 3860, 3866, 3872, 3878, 3880, 3881, 3888, 3895, 3902, 3903, 3913, 3922, 3931, 3951, 3956, 3969, 3971, 3975, 3977, 4002, 4009, 4013, 4014, 4036, 4039, 4050, 4072, 4077, 4089, 4095, 4099, 4124, 4128, 4143, 4144, 4146, 4157, 4172, 4173, 4175, 4178, 4184, 4207, 4216, 4217, 4222, 4225, 4231, 4233, 4234, 4242, 4249, 4255, 4256, 4259, 4276, 4281, 4290, 4291, 4294, 4298, 4307, 4311, 4313, 4322, 4334, 4338, 4340, 4342, 4343, 4358, 4362, 4373, 4374, 4377, 4384, 4401, 4412, 4423, 4425, 4443, 4444, 4445, 4446, 4462, 4476, 4498, 4508, 4517, 4524, 4543, 4551, 4555, 4562, 4570, 4582, 4584, 4587, 4593, 4603, 4607, 4611, 4620, 4629, 4639, 4647, 4649, 4662, 4666, 4671, 4673, 4679, 4688, 4691, 4708, 4732, 4735, 4736, 4742, 4746, 4754, 4771, 4772, 4789, 4795, 4801, 4805, 4807, 4819, 4820, 4827, 4836, 4857, 4858, 4866, 4895, 4906, 4909, 4910, 4912, 4913, 4928, 4929, 4931, 4937, 4945, 4948, 4950, 4957, 4965, 4977, 4978, 4983, 4985, 4992, 4994, 4998, 5000, 5018, 5032, 5035, 5036, 5043, 5045, 5048, 5059, 5065, 5079, 5081, 5098, 5103, 5105, 5110, 5117, 5121, 5129, 5131, 5142, 5152, 5180, 5181, 5187, 5203, 5205, 5212, 5215, 5224, 5225, 5226, 5234, 5235, 5264, 5277, 5284, 5293, 5305, 5306, 5309, 5315, 5317, 5324, 5335, 5339, 5343, 5352, 5368, 5378, 5383, 5385, 5394, 5396, 5398, 5401, 5407, 5410, 5416, 5422, 5431, 5438, 5453, 5469, 5485, 5487, 5508, 5513, 5515, 5523, 5524, 5553, 5573, 5580, 5589, 5598, 5613, 5614, 5626, 5632, 5633, 5639, 5641, 5645, 5648, 5668, 5669, 5673, 5680, 5681, 5684, 5687, 5688, 5691, 5693, 5695, 5704, 5705, 5711, 5716, 5717, 5727, 5734, 5760, 5771, 5778, 5786, 5793, 5794, 5815, 5821, 5823, 5826, 5836, 5859, 5867, 5884, 5886, 5889, 5905, 5915, 5925, 5928, 5931, 5939, 5947, 5959, 5962, 5963, 5964, 5981, 5982, 5984, 5999, 6010, 6016, 6017, 6026, 6027, 6042, 6056, 6061, 6074, 6079, 6089, 6096, 6108, 6117, 6119, 6132, 6134, 6138, 6156, 6158, 6166, 6174, 6177, 6201, 6206, 6213, 6217, 6218, 6235, 6240, 6246, 6270, 6277, 6297, 6311, 6313, 6318, 6322, 6329, 6331, 6349, 6351, 6352, 6353, 6358, 6359, 6362, 6370, 6381, 6383, 6386, 6391, 6414, 6417, 6427, 6431, 6436, 6439, 6443, 6445, 6455, 6460, 6462, 6471, 6477, 6483, 6485, 6486, 6493, 6499, 6506, 6524, 6536, 6562, 6565, 6575, 6579, 6593, 6603, 6621, 6634, 6640, 6641, 6644, 6656, 6659, 6666, 6667, 6668, 6670, 6675, 6680, 6681, 6683, 6693, 6706, 6707, 6709, 6719, 6720, 6721, 6725, 6726, 6736, 6738, 6745, 6747, 6749, 6751, 6752, 6755, 6761, 6762, 6766, 6767, 6772, 6775, 6776, 6783, 6784, 6801, 6803, 6816, 6822, 6841, 6848, 6850, 6856, 6857, 6860, 6866, 6867, 6879, 6880, 6898, 6903, 6904, 6916, 6918, 6932, 6942, 6950, 6951, 6955, 6969, 6973, 6974, 6975, 6985, 6986, 7005, 7007, 7011, 7013, 7016, 7017, 7018, 7020, 7023, 7029, 7032, 7034, 7035, 7036, 7042, 7047, 7050, 7056, 7057, 7058, 7063, 7074, 7075, 7078, 7080, 7087, 7090, 7093, 7102, 7106, 7109, 7111, 7113, 7120, 7122, 7132, 7133, 7135, 7136, 7149, 7152, 7157, 7159, 7160, 7169, 7177, 7187, 7188, 7190, 7193, 7194, 7195, 7198, 7200, 7206, 7210, 7216, 7228, 7232, 7234, 7239, 7243, 7248, 7249, 7256, 7262, 7281, 7284, 7288, 7296, 7298, 7302, 7307, 7317, 7320, 7325, 7331, 7336, 7337, 7342, 7345, 7348, 7353, 7358, 7360, 7362, 7363, 7366, 7373, 7374, 7375, 7384, 7389, 7391, 7392, 7393, 7399, 7408, 7412, 7428, 7437, 7463, 7464, 7466, 7483, 7484, 7489, 7494, 7498, 7500, 7504, 7515, 7524, 7525, 7529, 7539, 7545, 7555, 7562, 7565, 7568, 7574, 7576, 7581, 7584, 7589, 7590, 7596, 7597, 7598, 7599, 7600, 7603, 7606, 7608, 7609, 7610, 7616, 7619, 7625, 7629, 7631, 7634, 7636, 7639, 7640, 7642, 7647, 7659, 7668, 7670, 7672, 7688, 7704, 7705, 7710, 7713, 7716, 7717, 7725, 7728, 7736, 7741, 7742, 7743, 7746, 7762, 7766, 7768, 7775, 7777, 7779, 7790, 7793, 7797, 7800, 7802, 7804, 7805, 7807, 7813, 7822, 7823, 7824, 7837, 7838, 7841, 7850, 7857, 7861, 7873, 7884, 7887, 7888, 7891, 7895, 7899, 7901, 7905, 7915, 7916, 7920, 7921, 7923, 7935, 7937, 7942, 7946, 7956, 7958, 7960, 7962, 7965, 7968, 7970, 7972, 7986, 7989, 7991, 7992, 7996, 7999, 8002, 8015, 8020, 8022, 8032, 8041, 8058, 8059, 8062, 8067, 8069, 8072, 8073, 8075, 8079, 8080, 8083, 8087, 8088, 8089, 8096, 8103, 8121, 8122, 8127, 8135, 8155, 8156, 8160, 8165, 8166, 8180, 8181, 8189, 8195, 8197, 8199, 8205, 8210, 8222, 8226, 8232, 8236, 8237, 8240, 8243, 8245, 8250, 8270, 8272, 8274, 8277, 8292, 8294, 8296, 8300, 8304, 8309, 8315, 8318, 8320, 8322, 8325, 8326, 8328, 8331, 8333, 8334, 8340, 8341, 8344, 8354, 8363, 8364, 8369, 8370, 8377, 8386, 8387, 8392, 8398, 8407, 8410, 8415, 8422, 8425, 8434, 8435, 8441, 8445, 8447, 8448, 8457, 8463, 8471, 8475, 8478, 8479, 8480, 8482, 8484, 8492, 8494, 8497, 8503, 8506, 8509, 8510, 8518, 8520, 8524, 8538, 8553, 8554, 8564, 8571, 8580, 8581, 8583, 8590, 8599, 8604, 8605, 8614, 8621, 8626, 8627, 8630, 8657, 8665, 8672, 8673, 8677, 8680, 8693, 8695, 8698, 8703, 8705, 8707, 8714, 8715, 8717, 8719, 8726, 8735, 8737, 8738, 8741, 8744, 8745, 8747, 8765, 8778, 8789, 8792, 8797, 8804, 8810, 8813, 8815, 8816, 8817, 8821, 8822, 8833, 8845, 8852, 8856, 8866, 8867, 8882, 8891, 8893, 8895, 8898, 8900, 8909, 8912, 8913, 8916, 8919, 8921, 8931, 8936, 8937, 8940, 8948, 8952, 8957, 8962, 8964, 8970, 8973, 8977, 8983, 8988, 9000, 9004, 9028, 9030, 9039, 9041, 9046, 9050, 9051, 9056, 9058, 9060, 9066, 9070, 9076, 9080, 9084, 9087, 9101, 9103, 9111, 9112, 9119, 9121, 9132, 9136, 9142, 9150, 9152, 9155, 9160, 9161, 9171, 9172, 9178, 9200, 9207, 9208, 9209, 9210, 9211, 9218, 9227, 9238, 9239, 9241, 9242, 9256, 9262, 9264, 9266, 9273, 9277, 9288, 9290, 9294, 9295, 9298, 9300, 9303, 9315, 9316, 9322, 9325, 9326, 9330, 9331, 9334, 9336, 9342, 9343, 9350, 9355, 9361, 9370, 9372, 9376, 9384, 9390, 9392, 9399, 9424, 9428, 9432, 9444, 9448, 9468, 9471, 9475, 9488, 9489, 9497, 9506, 9509, 9513, 9525, 9527, 9529, 9531, 9534, 9538, 9551, 9555, 9559, 9560, 9562, 9567, 9570, 9572, 9577, 9588, 9591, 9600, 9601, 9605, 9609, 9612, 9616, 9618, 9620, 9625, 9631, 9633, 9635, 9637, 9642, 9649, 9656, 9659, 9689, 9696, 9701, 9702, 9704, 9716, 9720, 9721, 9727, 9733, 9737, 9744, 9751, 9759, 9760, 9761, 9764, 9770, 9773, 9775, 9776, 9781, 9791, 9793, 9796, 9798, 9801, 9808, 9809, 9812, 9814, 9816, 9819, 9822, 9824, 9825, 9827, 9844, 9850, 9861, 9863, 9864, 9867, 9868, 9874, 9875, 9877, 9880, 9882, 9886, 9892, 9893, 9894, 9898, 9910, 9915, 9919, 9925, 9926, 9933, 9934, 9937, 9945, 9950, 9962, 9963, 9975, 9980, 9983, 10002, 10006, 10007, 10008, 10015, 10019, 10021, 10022, 10025, 10028, 10037, 10056, 10058, 10063, 10066, 10085, 10086, 10088, 10092, 10094, 10100, 10101, 10102, 10108, 10113, 10116, 10119, 10120, 10121, 10122, 10123, 10129, 10130, 10132, 10140, 10142, 10143, 10146, 10149, 10154, 10159, 10166, 10169, 10171, 10174, 10176, 10189, 10193, 10198, 10199, 10203, 10220, 10222, 10229, 10231, 10232, 10236, 10243, 10245, 10249, 10251, 10255, 10256, 10257, 10260, 10262, 10264, 10266, 10273, 10282, 10283, 10286, 10287, 10289, 10308, 10309, 10318, 10319, 10322, 10325, 10333, 10341, 10346, 10351, 10352, 10353, 10354, 10367, 10373, 10375, 10377, 10386, 10389, 10393, 10394, 10408, 10409, 10413, 10421, 10426, 10428, 10431, 10432, 10435, 10438, 10439, 10440, 10454, 10462, 10465, 10466, 10481, 10484, 10485, 10492, 10496, 10500, 10502, 10503, 10505, 10506, 10507, 10510, 10513, 10517, 10520, 10524, 10525, 10538, 10543, 10550, 10553, 10554, 10555, 10558, 10563, 10571, 10575, 10579, 10580, 10582, 10584, 10587, 10592, 10595, 10597, 10606, 10611, 10612, 10613, 10621, 10624, 10629, 10640, 10643, 10644, 10652, 10653, 10662, 10664, 10665, 10673, 10676, 10683, 10699, 10700, 10706, 10708, 10711, 10716, 10718, 10719, 10720, 10731, 10737, 10745, 10750, 10755, 10762, 10763, 10772, 10774, 10781, 10794, 10795, 10798, 10827, 10829, 10837, 10858, 10860, 10866, 10872, 10879, 10883, 10906, 10908, 10913, 10920, 10925, 10929, 10937, 10955, 10956, 10965, 10968, 10971, 10974, 10981, 10983, 10984, 10986, 10987, 10993, 10994, 10996, 10998, 10999, 11010, 11014, 11020, 11031, 11034, 11039, 11042, 11046, 11048, 11051, 11052, 11056, 11058, 11061, 11071, 11075, 11080, 11089, 11092, 11096, 11097, 11098, 11103, 11112, 11113, 11119, 11139, 11141, 11142, 11156, 11161, 11168, 11170, 11173, 11175, 11183, 11185, 11190, 11192, 11197, 11199, 11200, 11207, 11210, 11220, 11223, 11227, 11231, 11234, 11235, 11252, 11257, 11260, 11262, 11264, 11272, 11275, 11279, 11281, 11283, 11285, 11286, 11291, 11298, 11299, 11305, 11306, 11308, 11309, 11311, 11316, 11318, 11320, 11322, 11329, 11330, 11331, 11334, 11338, 11349, 11350, 11355, 11357, 11359, 11366, 11371, 11372, 11373, 11377, 11378, 11382, 11384, 11391, 11394, 11400, 1, 5, 9, 10, 12, 23, 31, 33, 35, 38, 43, 52, 68, 69, 85, 86, 91, 96, 101, 110, 111, 123, 125, 132, 143, 145, 149, 151, 152, 156, 158, 159, 163, 171, 176, 177, 178, 183, 194, 195, 196, 199, 200, 201, 202, 205, 217, 228, 230, 232, 233, 235, 236, 251, 262, 275, 283, 284, 285, 287, 289, 290, 297, 300, 307, 310, 311, 324, 336, 347, 356, 360, 361, 366, 367, 377, 381, 384, 387, 396, 400, 403, 409, 414, 419, 422, 430, 434, 452, 454, 458, 459, 464, 479, 487, 493, 505, 509, 510, 515, 519, 531, 532, 539, 540, 551, 556, 572, 575, 580, 590, 592, 599, 603, 615, 616, 636, 640, 651, 657, 658, 659, 669, 675, 676, 678, 686, 687, 691, 698, 706, 721, 731, 745, 755, 756, 758, 759, 762, 764, 770, 786, 790, 795, 802, 805, 817, 820, 824, 827, 834, 843, 844, 846, 853, 864, 874, 875, 876, 887, 893, 901, 906, 907, 908, 909, 910, 911, 913, 918, 919, 921, 937, 941, 943, 944, 953, 957, 976, 985, 991, 993, 996, 1003, 1014, 1015, 1024, 1030, 1034, 1035, 1038, 1039, 1040, 1057, 1058, 1060, 1074, 1081, 1085, 1088, 1091, 1103, 1111, 1114, 1128, 1130, 1140, 1143, 1145, 1147, 1149, 1156, 1160, 1168, 1172, 1173, 1181, 1195, 1201, 1215, 1219, 1220, 1221, 1232, 1234, 1241, 1243, 1246, 1258, 1259, 1260, 1262, 1268, 1270, 1271, 1275, 1286, 1289, 1291, 1292, 1293, 1294, 1305, 1307, 1318, 1320, 1352, 1365, 1367, 1369, 1381, 1388, 1391, 1393, 1397, 1403, 1404, 1430, 1434, 1437, 1438, 1441, 1442, 1447, 1453, 1462, 1465, 1469, 1485, 1486, 1500, 1505, 1506, 1508, 1510, 1520, 1521, 1525, 1532, 1534, 1547, 1574, 1593, 1596, 1601, 1621, 1623, 1625, 1627, 1629, 1632, 1635, 1652, 1657, 1660, 1666, 1669, 1673, 1678, 1686, 1690, 1695, 1698, 1699, 1702, 1711, 1713, 1715, 1718, 1719, 1734, 1740, 1753, 1759, 1766, 1770, 1774, 1779, 1782, 1797, 1798, 1801, 1816, 1829, 1838, 1842, 1843, 1847, 1873, 1889, 1892, 1903, 1904, 1912, 1929, 1931, 1941, 1942, 1945, 1956, 1957, 1966, 1967, 1971, 1982, 1993, 1997, 1998, 2002, 2003, 2004, 2017, 2022, 2023, 2025, 2026, 2030, 2032, 2044, 2053, 2058, 2059, 2060, 2068, 2070, 2073, 2077, 2088, 2095, 2105, 2107, 2109, 2112, 2114, 2123, 2137, 2141, 2150, 2153, 2157, 2162, 2169, 2171, 2185, 2190, 2192, 2198, 2200, 2205, 2207, 2227, 2228, 2234, 2237, 2242, 2243, 2245, 2253, 2254, 2255, 2260, 2261, 2262, 2273, 2277, 2280, 2285, 2307, 2312, 2314, 2315, 2317, 2320, 2321, 2329, 2334, 2335, 2338, 2343, 2348, 2349, 2362, 2372, 2377, 2378, 2387, 2401, 2402, 2423, 2424, 2428, 2430, 2435, 2436, 2450, 2451, 2452, 2455, 2457, 2459, 2468, 2470, 2471, 2472, 2486, 2502, 2506, 2513, 2522, 2523, 2526, 2534, 2536, 2537, 2542, 2547, 2552, 2555, 2562, 2570, 2584, 2593, 2596, 2609, 2613, 2615, 2617, 2631, 2633, 2643, 2666, 2679, 2681, 2685, 2696, 2699, 2709, 2710, 2730, 2732, 2742, 2749, 2752, 2763, 2767, 2768, 2776, 2777, 2785, 2786, 2787, 2788, 2789, 2794, 2795, 2797, 2799, 2800, 2808, 2813, 2815, 2822, 2824, 2825, 2831, 2839, 2841, 2843, 2850, 2860, 2868, 2873, 2874, 2884, 2885, 2887, 2903, 2910, 2912, 2935, 2936, 2947, 2948, 2955, 2956, 2958, 2961, 2985, 2987, 2993, 2994, 3001, 3008, 3025, 3030, 3039, 3047, 3050, 3057, 3058, 3061, 3063, 3071, 3081, 3087, 3091, 3098, 3099, 3102, 3105, 3106, 3121, 3135, 3143, 3146, 3149, 3153, 3158, 3159, 3172, 3182, 3193, 3194, 3227, 3234, 3248, 3249, 3257, 3265, 3270, 3274, 3277, 3287, 3292, 3293, 3295, 3297, 3300, 3314, 3319, 3333, 3336, 3337, 3340, 3342, 3368, 3374, 3382, 3387, 3396, 3402, 3405, 3409, 3416, 3422, 3429, 3436, 3447, 3448, 3450, 3452, 3460, 3476, 3477, 3484, 3487, 3504, 3507, 3509, 3516, 3520, 3528, 3530, 3531, 3544, 3545, 3547, 3552, 3564, 3566, 3568, 3570, 3579, 3589, 3592, 3596, 3600, 3601, 3607, 3608, 3610, 3611, 3625, 3626, 3628, 3653, 3655, 3668, 3675, 3688, 3699, 3705, 3711, 3719, 3726, 3728, 3729, 3740, 3748, 3757, 3760, 3762, 3764, 3780, 3782, 3786, 3794, 3799, 3807, 3813, 3814, 3818, 3820, 3826, 3827, 3849, 3850, 3861, 3863, 3864, 3869, 3871, 3877, 3882, 3883, 3884, 3887, 3894, 3909, 3916, 3918, 3924, 3929, 3945, 3953, 3954, 3961, 3962, 3968, 3981, 3984, 3985, 3999, 4003, 4021, 4034, 4038, 4055, 4057, 4070, 4074, 4080, 4081, 4084, 4086, 4087, 4091, 4102, 4103, 4106, 4108, 4123, 4129, 4131, 4134, 4138, 4160, 4165, 4166, 4171, 4192, 4193, 4203, 4206, 4208, 4219, 4227, 4229, 4239, 4245, 4264, 4277, 4310, 4314, 4316, 4317, 4319, 4320, 4323, 4327, 4328, 4331, 4333, 4335, 4336, 4344, 4347, 4352, 4359, 4366, 4370, 4382, 4394, 4396, 4397, 4407, 4416, 4419, 4421, 4422, 4434, 4437, 4438, 4441, 4449, 4450, 4452, 4454, 4461, 4464, 4466, 4471, 4472, 4481, 4482, 4485, 4491, 4492, 4497, 4499, 4502, 4505, 4506, 4513, 4516, 4520, 4522, 4526, 4533, 4537, 4538, 4539, 4542, 4546, 4557, 4559, 4564, 4565, 4573, 4574, 4577, 4581, 4590, 4591, 4592, 4595, 4596, 4601, 4614, 4615, 4618, 4621, 4624, 4630, 4633, 4634, 4640, 4648, 4650, 4651, 4660, 4663, 4664, 4669, 4676, 4681, 4685, 4689, 4693, 4705, 4719, 4721, 4723, 4724, 4734, 4738, 4739, 4741, 4745, 4750, 4752, 4759, 4760, 4773, 4777, 4778, 4785, 4814, 4815, 4816, 4840, 4845, 4847, 4849, 4850, 4852, 4853, 4855, 4859, 4862, 4868, 4869, 4872, 4877, 4879, 4883, 4885, 4902, 4911, 4916, 4919, 4921, 4922, 4923, 4926, 4934, 4962, 4967, 4968, 4969, 4970, 4973, 4975, 4987, 4991, 5003, 5021, 5026, 5027, 5033, 5040, 5051, 5054, 5058, 5068, 5069, 5071, 5087, 5094, 5099, 5106, 5108, 5124, 5126, 5128, 5136, 5146, 5148, 5151, 5155, 5163, 5166, 5170, 5172, 5174, 5178, 5182, 5186, 5189, 5191, 5192, 5197, 5199, 5208, 5211, 5219, 5228, 5232, 5236, 5247, 5256, 5257, 5259, 5261, 5294, 5295, 5299, 5300, 5302, 5312, 5319, 5320, 5322, 5325, 5327, 5338, 5346, 5347, 5349, 5353, 5354, 5360, 5362, 5366, 5370, 5371, 5380, 5382, 5393, 5399, 5404, 5406, 5414, 5415, 5417, 5427, 5435, 5443, 5448, 5460, 5463, 5464, 5472, 5482, 5491, 5501, 5503, 5531, 5534, 5539, 5541, 5556, 5561, 5571, 5578, 5593, 5596, 5600, 5604, 5607, 5610, 5611, 5618, 5619, 5622, 5627, 5629, 5631, 5637, 5652, 5666, 5670, 5679, 5683, 5708, 5713, 5724, 5733, 5735, 5741, 5744, 5747, 5750, 5751, 5754, 5756, 5764, 5776, 5788, 5790, 5795, 5797, 5799, 5806, 5809, 5810, 5824, 5825, 5833, 5849, 5850, 5853, 5861, 5862, 5864, 5866, 5868, 5869, 5876, 5877, 5882, 5897, 5901, 5902, 5906, 5909, 5912, 5913, 5918, 5924, 5927, 5929, 5933, 5946, 5953, 5956, 5957, 5968, 5973, 5989, 5995, 5996, 6003, 6005, 6014, 6019, 6021, 6025, 6032, 6045, 6051, 6057, 6059, 6081, 6083, 6085, 6086, 6090, 6091, 6097, 6098, 6103, 6105, 6115, 6116, 6118, 6122, 6128, 6136, 6137, 6153, 6157, 6165, 6183, 6185, 6187, 6188, 6194, 6196, 6202, 6211, 6212, 6215, 6220, 6223, 6224, 6228, 6243, 6249, 6250, 6251, 6255, 6259, 6261, 6262, 6265, 6272, 6276, 6282, 6283, 6284, 6285, 6292, 6293, 6295, 6298, 6305, 6308, 6319, 6321, 6325, 6334, 6336, 6342, 6350, 6360, 6361, 6365, 6368, 6369, 6371, 6372, 6374, 6375, 6379, 6389, 6392, 6394, 6395, 6396, 6397, 6400, 6403, 6405, 6407, 6410, 6415, 6422, 6425, 6452, 6465, 6466, 6470, 6479, 6491, 6492, 6496, 6508, 6509, 6510, 6512, 6514, 6517, 6528, 6529, 6547, 6548, 6550, 6555, 6588, 6589, 6595, 6605, 6614, 6629, 6632, 6645, 6650, 6651, 6671, 6682, 6692, 6701, 6710, 6731, 6732, 6735, 6737, 6740, 6743, 6756, 6780, 6781, 6788, 6794, 6796, 6798, 6799, 6813, 6824, 6838, 6840, 6844, 6852, 6862, 6870, 6872, 6873, 6878, 6899, 6912, 6915, 6920, 6928, 6929, 6931, 6935, 6940, 6957, 6960, 6967, 6978, 6992, 7003, 7004, 7012, 7014, 7015, 7025, 7027, 7043, 7055, 7059, 7069, 7072, 7100, 7131, 7141, 7143, 7146, 7151, 7154, 7156, 7161, 7171, 7172, 7178, 7196, 7197, 7202, 7211, 7217, 7225, 7235, 7244, 7247, 7264, 7265, 7268, 7269, 7282, 7301, 7305, 7310, 7313, 7315, 7318, 7322, 7324, 7327, 7343, 7354, 7368, 7370, 7381, 7394, 7395, 7397, 7407, 7410, 7413, 7418, 7424, 7441, 7447, 7450, 7452, 7458, 7471, 7475, 7490, 7491, 7510, 7514, 7517, 7532, 7534, 7541, 7547, 7553, 7559, 7564, 7570, 7572, 7593, 7632, 7635, 7638, 7651, 7652, 7661, 7679, 7681, 7682, 7691, 7714, 7715, 7720, 7729, 7731, 7744, 7749, 7756, 7765, 7767, 7771, 7778, 7780, 7809, 7821, 7827, 7859, 7863, 7865, 7879, 7883, 7885, 7894, 7896, 7897, 7903, 7904, 7906, 7907, 7908, 7911, 7927, 7936, 7939, 7949, 7952, 7955, 7993, 7997, 8000, 8003, 8006, 8009, 8043, 8053, 8054, 8055, 8061, 8065, 8068, 8070, 8074, 8078, 8081, 8098, 8117, 8119, 8132, 8134, 8137, 8144, 8145, 8158, 8161, 8163, 8168, 8176, 8177, 8188, 8191, 8214, 8219, 8230, 8231, 8246, 8253, 8265, 8267, 8285, 8288, 8290, 8321, 8327, 8332, 8335, 8343, 8345, 8346, 8355, 8360, 8378, 8379, 8381, 8396, 8402, 8423, 8436, 8444, 8450, 8452, 8461, 8470, 8472, 8481, 8493, 8495, 8507, 8511, 8514, 8523, 8530, 8534, 8535, 8541, 8562, 8565, 8589, 8603, 8616, 8622, 8625, 8628, 8633, 8639, 8640, 8643, 8651, 8670, 8681, 8684, 8697, 8701, 8702, 8704, 8725, 8732, 8748, 8760, 8772, 8781, 8782, 8794, 8798, 8805, 8809, 8825, 8834, 8836, 8837, 8838, 8847, 8859, 8860, 8862, 8875, 8902, 8917, 8925, 8927, 8935, 8945, 8982, 8989, 8994, 8996, 8998, 8999, 9001, 9002, 9013, 9015, 9018, 9053, 9054, 9062, 9078, 9085, 9086, 9091, 9098, 9102, 9120, 9124, 9128, 9148, 9151, 9157, 9163, 9168, 9170, 9173, 9183, 9196, 9198, 9201, 9202, 9203, 9212, 9221, 9243, 9263, 9268, 9269, 9270, 9276, 9280, 9281, 9291, 9306, 9324, 9333, 9349, 9365, 9367, 9385, 9386, 9388, 9396, 9401, 9402, 9406, 9413, 9416, 9418, 9426, 2, 11, 20, 21, 25, 28, 36, 37, 41, 45, 47, 48, 51, 54, 59, 77, 78, 80, 81, 83, 84, 93, 94, 98, 99, 102, 112, 124, 129, 131, 141, 142, 146, 155, 160, 170, 179, 186, 191, 193, 198, 209, 214, 216, 229, 231, 241, 249, 270, 278, 279, 280, 286, 291, 296, 298, 306, 308, 322, 333, 339, 346, 348, 353, 368, 375, 379, 393, 399, 401, 420, 421, 424, 427, 439, 441, 446, 447, 448, 453, 462, 463, 468, 470, 473, 474, 485, 491, 498, 508, 513, 516, 527, 547, 548, 561, 565, 566, 576, 584, 585, 607, 609, 613, 614, 624, 632, 635, 642, 644, 663, 673, 701, 703, 705, 710, 714, 722, 723, 724, 732, 736, 740, 747, 750, 761, 768, 769, 775, 780, 788, 792, 794, 797, 800, 801, 803, 806, 807, 816, 821, 828, 829, 857, 859, 865, 869, 871, 877, 878, 886, 889, 912, 924, 927, 929, 933, 939, 956, 966, 999, 1002, 1017, 1019, 1025, 1026, 1031, 1032, 1044, 1052, 1054, 1061, 1069, 1073, 1093, 1098, 1100, 1106, 1108, 1116, 1134, 1141, 1150, 1153, 1155, 1162, 1165, 1167, 1169, 1177, 1182, 1183, 1186, 1192, 1196, 1207, 1211, 1218, 1223, 1225, 1233, 1247, 1248, 1250, 1256, 1265, 1273, 1274, 1276, 1280, 1283, 1285, 1290, 1319, 1323, 1329, 1333, 1335, 1340, 1342, 1343, 1344, 1345, 1347, 1350, 1356, 1360, 1373, 1375, 1386, 1392, 1394, 1398, 1400, 1405, 1409, 1412, 1421, 1422, 1423, 1431, 1436, 1450, 1451, 1452, 1459, 1483, 1489, 1493, 1496, 1497, 1512, 1517, 1526, 1531, 1537, 1544, 1546, 1548, 1552, 1553, 1555, 1558, 1559, 1564, 1577, 1583, 1587, 1590, 1598, 1600, 1603, 1606, 1636, 1656, 1665, 1667, 1668, 1687, 1705, 1706, 1707, 1717, 1724, 1730, 1736, 1739, 1744, 1746, 1761, 1775, 1777, 1780, 1783, 1784, 1799, 1810, 1823, 1824, 1835, 1846, 1862, 1864, 1866, 1870, 1874, 1875, 1876, 1884, 1885, 1888, 1906, 1907, 1913, 1917, 1921, 1924, 1932, 1938, 1947, 1951, 1952, 1963, 1978, 1984, 1990, 1995, 1996, 1999, 2008, 2014, 2033, 2042, 2045, 2061, 2063, 2071, 2079, 2087, 2089, 2090, 2094, 2103, 2108, 2127, 2130, 2133, 2134, 2140, 2147, 2152, 2155, 2166, 2168, 2176, 2180, 2201, 2213, 2248, 2249, 2256, 2259, 2265, 2271, 2272, 2281, 2289, 2292, 2299, 2308, 2318, 2324, 2326, 2327, 2339, 2354, 2366, 2373, 2379, 2380, 2381, 2383, 2386, 2393, 2408, 2411, 2412, 2416, 2418, 2426, 2438, 2446, 2456, 2465, 2477, 2478, 2480, 2489, 2491, 2496, 2497, 2503, 2520, 2527, 2543, 2549, 2550, 2556, 2569, 2572, 2573, 2579, 2580, 2590, 2591, 2592, 2594, 2603, 2605, 2616, 2624, 2625, 2626, 2628, 2630, 2636, 2638, 2639, 2646, 2649, 2651, 2656, 2661, 2668, 2670, 2672, 2673, 2675, 2677, 2678, 2682, 2684, 2688, 2692, 2697, 2703, 2714, 2717, 2720, 2721, 2722, 2724, 2744, 2754, 2760, 2761, 2772, 2778, 2783, 2804, 2805, 2807, 2810, 2817, 2819, 2845, 2853, 2862, 2864, 2872, 2876, 2886, 2892, 2893, 2894, 2896, 2913, 2917, 2920, 2930, 2932, 2941, 2949, 2957, 2962, 2965, 2970, 2974, 2978, 2979, 2981, 2984, 2991, 2997, 3000, 3003, 3013, 3016, 3019, 3027, 3029, 3036, 3043, 3046, 3064, 3068, 3083, 3084, 3088, 3089, 3108, 3113, 3115, 3117, 3122, 3139, 3140, 3142, 3150, 3151, 3152, 3156, 3157, 3160, 3168, 3169, 3176, 3181, 3183, 3204, 3217, 3221, 3241, 3243, 3245, 3255, 3261, 3264, 3272, 3275, 3278, 3280, 3282, 3283, 3299, 3309, 3311, 3324, 3326, 3339, 3349, 3350, 3352, 3360, 3363, 3376, 3378, 3380, 3384, 3391, 3395, 3397, 3410, 3412, 3414, 3415, 3426, 3439, 3442, 3455, 3459, 3467, 3468, 3478, 3479, 3483, 3485, 3486, 3491, 3495, 3497, 3506, 3553, 3559, 3569, 3582, 3593, 3595, 3614, 3616, 3622, 3630, 3636, 3640, 3644, 3651, 3657, 3672, 3676, 3685, 3687, 3696, 3701, 3706, 3708, 3721, 3722, 3732, 3733, 3734, 3738, 3749, 3761, 3767, 3771, 3773, 3784, 3801, 3806, 3809, 3810, 3817, 3821, 3824, 3835, 3838, 3839, 3843, 3844, 3847, 3854, 3859, 3870, 3876, 3886, 3893, 3900, 3904, 3911, 3915, 3917, 3919, 3927, 3932, 3934, 3935, 3942, 3943, 3946, 3957, 3972, 3979, 3989, 3991, 3992, 3995, 3997, 4019, 4025, 4030, 4037, 4044, 4047, 4048, 4051, 4052, 4053, 4059, 4062, 4064, 4066, 4073, 4090, 4098, 4119, 4130, 4132, 4145, 4147, 4152, 4169, 4174, 4179, 4181, 4182, 4186, 4187, 4197, 4201, 4209, 4211, 4228, 4236, 4246, 4251, 4253, 4257, 4261, 4268, 4269, 4271, 4272, 4273, 4274, 4285, 4288, 4292, 4293, 4295, 4300, 4315, 4329, 4339, 4353, 4372, 4385, 4387, 4388, 4392, 4398, 4402, 4403, 4413, 4417, 4424, 4465, 4468, 4470, 4473, 4477, 4484, 4494, 4496, 4518, 4521, 4531, 4541, 4554, 4556, 4572, 4575, 4580, 4597, 4599, 4604, 4612, 4616, 4622, 4625, 4641, 4642, 4654, 4659, 4667, 4668, 4686, 4697, 4698, 4704, 4714, 4716, 4720, 4728, 4729, 4730, 4764, 4768, 4779, 4781, 4784, 4787, 4791, 4798, 4811, 4813, 4817, 4821, 4832, 4839, 4842, 4843, 4844, 4848, 4864, 4903, 4904, 4915, 4932, 4933, 4938, 4942, 4944, 4947, 4954, 4959, 4960, 4971, 4972, 4976, 4981, 4988, 4995, 5004, 5009, 5014, 5017, 5023, 5038, 5042, 5055, 5060, 5070, 5075, 5077, 5080, 5089, 5101, 5115, 5127, 5132, 5134, 5139, 5140, 5141, 5149, 5156, 5157, 5164, 5179, 5210, 5213, 5217, 5229, 5231, 5233, 5243, 5244, 5245, 5246, 5248, 5250, 5251, 5255, 5263, 5267, 5275, 5279, 5285, 5303, 5308, 5311, 5328, 5342, 5355, 5358, 5359, 5361, 5364, 5373, 5376, 5379, 5390, 5403, 5408, 5429, 5436, 5446, 5447, 5449, 5461, 5466, 5477, 5489, 5496, 5498, 5502, 5504, 5505, 5506, 5514, 5516, 5518, 5525, 5527, 5536, 5538, 5543, 5547, 5548, 5551, 5575, 5584, 5585, 5586, 5588, 5594, 5605, 5608, 5609, 5625, 5628, 5635, 5636, 5640, 5649, 5650, 5653, 5657, 5658, 5660, 5664, 5665, 5667, 5672, 5674, 5675, 5682, 5686, 5689, 5690, 5692, 5707, 5719, 5723, 5730, 5731, 5732, 5737, 5743, 5752, 5753, 5762, 5767, 5768, 5770, 5774, 5780, 5784, 5804, 5807, 5816, 5820, 5829, 5838, 5839, 5842, 5848, 5851, 5863, 5865, 5871, 5880, 5893, 5900, 5914, 5937, 5940, 5951, 5965, 5970, 5972, 5974, 5987, 5991, 5993, 6012, 6013, 6028, 6033, 6035, 6036, 6040, 6046, 6062, 6066, 6072, 6076, 6088, 6092, 6095, 6099, 6101, 6104, 6110, 6112, 6133, 6178, 6180, 6191, 6195, 6197, 6200, 6207, 6208, 6214, 6225, 6229, 6234, 6237, 6244, 6256, 6257, 6268, 6271, 6278, 6291, 6299, 6306, 6323, 6324, 6332, 6335, 6337, 6340, 6341, 6343, 6347, 6356, 6357, 6363, 6390, 6401, 6404, 6409, 6411, 6421, 6423, 6430, 6433, 6437, 6446, 6449, 6451, 6456, 6464, 6481, 6484, 6497, 6504, 6507, 6513, 6519, 6533, 6541, 6546, 6554, 6561, 6567, 6574, 6576, 6577, 6599, 6601, 6604, 6611, 6615, 6616, 6617, 6624, 6635, 6637, 6638, 6646, 6654, 6657, 6660, 6661, 6663, 6665, 6674, 6684, 6689, 6690, 6697, 6699, 6700, 6702, 6703, 6704, 6713, 6715, 6718, 6733, 6748, 6753, 6754, 6757, 6758, 6759, 6768, 6769, 6773, 6774, 6790, 6795, 6804, 6809, 6815, 6827, 6828, 6831, 6842, 6845, 6849, 6851, 6853, 6855, 6869, 6886, 6889, 6890, 6895, 6902, 6906, 6909, 6923, 6933, 6938, 6939, 6945, 6946, 6948, 6952, 6958, 6971, 6982, 6984, 6989, 7001, 7002, 7009, 7010, 7024, 7039, 7045, 7048, 7053, 7064, 7065, 7067, 7079, 7081, 7082, 7084, 7086, 7098, 7105, 7107, 7140, 7144, 7147, 7166, 7175, 7182, 7192, 7204, 7205, 7215, 7222, 7233, 7238, 7240, 7252, 7259, 7263, 7274, 7276, 7277, 7279, 7291, 7295, 7297, 7319, 7335, 7340, 7352, 7355, 7361, 7365, 7377, 7378, 7379, 7382, 7409, 7419, 7420, 7421, 7429, 7436, 7443, 7449, 7453, 7454, 7462, 7469, 7485, 7486, 7495, 7496, 7507, 7512, 7519, 7520, 7523, 7527, 7533, 7540, 7542, 7544, 7546, 7571, 7573, 7575, 7577, 7578, 7582, 7601, 7604, 7611, 7623, 7628, 7630, 7637, 7653, 7686, 7693, 7694, 7711, 7718, 7722, 7723, 7747, 7754, 7755, 7758, 7761, 7770, 7781, 7783, 7792, 7803, 7815, 7817, 7825, 7828, 7831, 7833, 7842, 7846, 7848, 7853, 7867, 7870, 7871, 7874, 7878, 7898, 7900, 7902, 7912, 7919, 7928, 7929, 7931, 7938, 7941, 7950, 7951, 7964, 7978, 7979, 7990, 7995, 8023, 8028, 8039, 8047, 8048, 8057, 8071, 8076, 8091, 8093, 8094, 8097, 8106, 8108, 8140, 8148, 8150, 8159, 8183, 8185, 8186, 8187, 8192, 8207, 8208, 8212, 8224, 8235, 8238, 8242, 8248, 8255, 8276, 8280, 8298, 8329, 8338, 8359, 8362, 8365, 8408, 8411, 8418, 8421, 8426, 8431, 8432, 8433, 8439, 8453, 8459, 8466, 8468, 8474, 8487, 8491, 8501, 8504, 8512, 8513, 8515, 8516, 8519, 8521, 8522, 8525, 8533, 8547, 8549, 8550, 8555, 8557, 8572, 8582, 8586, 8592, 8597, 8600, 8607, 8608, 8609, 8612, 8629, 8632, 8646, 8650, 8659, 8664, 8666, 8667, 8674, 8683, 8686, 8690, 8694, 8708, 8721, 8727, 8730, 8734, 8739, 8754, 8768, 8774, 8786, 8791, 8826, 8827, 8843, 8849, 8857, 8861, 8871, 8873, 8878, 8887, 8890, 8899, 8911, 8915, 8922, 8929, 8932, 8934, 8950, 8960, 8980, 9008, 9012, 9017, 9024, 9025, 9034, 9036, 9052, 9067, 9073, 9075, 9079, 9081, 9088, 9090, 9093, 9096, 9097, 9105, 9118, 9123, 9127, 9129, 9133, 9134, 9135, 9141, 9145, 9147, 9162, 9165, 9166, 9167, 9169, 9175, 9177, 9179, 9189, 9190, 9194, 9197, 9215, 9223, 9226, 9230, 9244, 9246, 9278, 9285, 9286, 9296, 9299, 9305, 9317, 9320, 9327, 9328, 9357, 9362, 9364, 9368, 9377, 9378, 9383, 9387, 9389, 9391, 9393, 9410, 9412, 9421, 9423, 9447, 9457, 9467, 9473, 9477, 9480, 9483, 9487, 9517, 9520, 9523, 9533, 9536, 9546, 9547, 9548, 9563, 9564, 9569, 9571, 9582, 9593, 9598, 9599, 9604, 9607, 9617, 9619, 9627, 9629, 9639, 9653, 9666, 9683, 9703, 9713, 9723, 9728, 9730, 9732, 9743, 9752, 9756, 9767, 9772, 9788, 9789, 9800, 9803, 9804, 9810, 9811, 9817, 9820, 9821, 9823, 9832, 9837, 9838, 9843, 9845, 9848, 9858, 9865, 9869, 9872, 9881, 9883, 9891, 9906, 9911, 9929, 9932, 9935, 9942, 9946, 9947, 9952, 9954, 9968, 9969, 9973, 9976, 9977, 9986, 9988, 9989, 9994, 10003, 10009, 10013, 10039, 10044, 10048, 10051, 10053, 10068, 10069, 10072, 10078, 10079, 10087, 10097, 10098, 10109, 10111, 10124, 10131, 10153, 10155, 10168, 10183, 10221, 10227, 10258, 10263, 10267, 10271, 10272, 10278, 10280, 10281, 10304, 10307, 10310, 10316, 10327, 10332, 10337, 10338, 10342, 10349, 10350, 10358, 10360, 10364, 10376, 10380, 10384, 10396, 10398, 10402, 14, 17, 53, 133, 189, 192, 269, 271, 293, 299, 305, 332, 354, 359, 413, 418, 425, 431, 432, 437, 438, 476, 483, 506, 533, 568, 582, 594, 595, 598, 600, 605, 617, 627, 656, 667, 674, 680, 694, 737, 767, 773, 784, 793, 796, 815, 840, 882, 885, 948, 984, 1037, 1043, 1046, 1064, 1078, 1101, 1121, 1122, 1125, 1129, 1158, 1198, 1200, 1205, 1210, 1217, 1230, 1277, 1300, 1301, 1310, 1383, 1389, 1414, 1424, 1426, 1428, 1432, 1449, 1455, 1475, 1477, 1518, 1522, 1524, 1551, 1567, 1570, 1576, 1594, 1604, 1631, 1633, 1647, 1659, 1672, 1674, 1676, 1696, 1703, 1708, 1710, 1721, 1750, 1768, 1832, 1841, 1880, 1896, 1943, 1944, 1946, 1950, 1980, 2007, 2029, 2039, 2064, 2072, 2075, 2082, 2091, 2098, 2100, 2117, 2146, 2181, 2187, 2191, 2196, 2212, 2252, 2263, 2269, 2293, 2350, 2352, 2365, 2375, 2384, 2396, 2403, 2405, 2415, 2427, 2445, 2466, 2467, 2508, 2528, 2545, 2560, 2565, 2589, 2618, 2634, 2635, 2644, 2659, 2669, 2687, 2700, 2706, 2711, 2728, 2748, 2758, 2765, 2779, 2784, 2793, 2820, 2821, 2823, 2828, 2833, 2921, 2931, 2952, 2969, 2977, 2992, 3009, 3012, 3022, 3049, 3051, 3067, 3072, 3074, 3111, 3116, 3144, 3178, 3195, 3196, 3213, 3252, 3253, 3279, 3281, 3317, 3330, 3351, 3356, 3406, 3419, 3433, 3437, 3440, 3465, 3475, 3489, 3496, 3523, 3526, 3563, 3574, 3580, 3584, 3599, 3618, 3623, 3629, 3633, 3662, 3670, 3686, 3692, 3693, 3700, 3704, 3707, 3713, 3716, 3727, 3737, 3765, 3770, 3785, 3792, 3830, 3831, 3846, 3857, 3862, 3892, 3925, 3938, 3960, 3966, 3976, 3980, 4029, 4067, 4088, 4093, 4101, 4114, 4150, 4151, 4153, 4154, 4215, 4223, 4254, 4270, 4275, 4286, 4301, 4303, 4341, 4351, 4383, 4389, 4395, 4405, 4440, 4451, 4458, 4467, 4474, 4478, 4480, 4488, 4507, 4515, 4532, 4547, 4560, 4583, 4588, 4605, 4606, 4608, 4619, 4636, 4637, 4674, 4678, 4684, 4703, 4706, 4762, 4763, 4786, 4812, 4834, 4860, 4861, 4867, 4892, 4897, 4905, 4918, 4925, 4930, 4940, 4941, 4951, 4958, 4979, 4993, 5002, 5034, 5037, 5044, 5056, 5061, 5066, 5074, 5084, 5091, 5111, 5114, 5138, 5175, 5188, 5190, 5195, 5222, 5240, 5249, 5258, 5260, 5262, 5272, 5276, 5278, 5283, 5286, 5310, 5326, 5334, 5374, 5377, 5387, 5400, 5409, 5420, 5479, 5484, 5533, 5559, 5566, 5570, 5572, 5595, 5602, 5603, 5621, 5642, 5654, 5655, 5661, 5677, 5710, 5714, 5721, 5772, 5801, 5808, 5814, 5822, 5832, 5843, 5852, 5872, 5874, 5875, 5896, 5921, 5922, 5932, 5935, 5949, 5976, 6000, 6023, 6038, 6053, 6124, 6146, 6152, 6162, 6163, 6182, 6184, 6205, 6241, 6245, 6253, 6254, 6258, 6263, 6275, 6279, 6280, 6290, 6300, 6317, 6333, 6380, 6402, 6418, 6424, 6438, 6444, 6450, 6457, 6459, 6478, 6482, 6488, 6500, 6503, 6516, 6520, 6522, 6537, 6618, 6636, 6642, 6716, 6724, 6746, 6791, 6797, 6802, 6818, 6834, 6865, 6907, 6922, 6941, 6963, 6980, 6981, 7006, 7033, 7066, 7104, 7129, 7130, 7158, 7209, 7219, 7230, 7255, 7308, 7338, 7356, 7390, 7398, 7405, 7411, 7433, 7460, 7473, 7477, 7508, 7550, 7641, 7655, 7658, 7664, 7669, 7671, 7680, 7702, 7724, 7733, 7748, 7757, 7776, 7798, 7811, 7849, 7851, 7864, 7876, 7943, 7957, 7961, 8004, 8016, 8026, 8064, 8109, 8114, 8115, 8124, 8126, 8129, 8153, 8182, 8209, 8211, 8218, 8228, 8249, 8257, 8258, 8264, 8266, 8273, 8297, 8303, 8310, 8311, 8317, 8336, 8348, 8356, 8380, 8383, 8391, 8397, 8399, 8404, 8405, 8424, 8429, 8442, 8458, 8485, 8545, 8574, 8584, 8613, 8619, 8635, 8731, 8733, 8736, 8746, 8767, 8769, 8771, 8793, 8800, 8819, 8823, 8846, 8850, 8883, 8885, 8897, 8907, 8924, 8978, 9003, 9032, 9033, 9038, 9074, 9099, 9104, 9107, 9149, 9153, 9182, 9199, 9220, 9231, 9232, 9234, 9260, 9267, 9297, 9307, 9340, 9404, 9409, 9422, 9430, 9437]
val ids: [10654, 10656, 10657, 10658, 10661, 10663, 10666, 10669, 10670, 10671, 10672, 10675, 10681, 10684, 10687, 10690, 10691, 10692, 10693, 10695, 10696, 10701, 10702, 10704, 10705, 10712, 10715, 10717, 10722, 10723, 10725, 10726, 10727, 10728, 10729, 10730, 10732, 10733, 10734, 10735, 10736, 10739, 10740, 10741, 10742, 10744, 10746, 10747, 10748, 10749, 10752, 10754, 10756, 10757, 10760, 10764, 10765, 10766, 10767, 10770, 10771, 10775, 10776, 10780, 10782, 10784, 10785, 10786, 10790, 10793, 10797, 10799, 10800, 10801, 10803, 10806, 10807, 10808, 10809, 10810, 10811, 10812, 10814, 10815, 10817, 10818, 10819, 10820, 10821, 10822, 10824, 10825, 10826, 10831, 10832, 10834, 10835, 10836, 10840, 10843, 10845, 10847, 10853, 10855, 10859, 10861, 10862, 10863, 10867, 10868, 10869, 10870, 10871, 10874, 10885, 10886, 10887, 10889, 10892, 10894, 10898, 10899, 10900, 10901, 10904, 10905, 10910, 10911, 10912, 10914, 10916, 10917, 10919, 10922, 10923, 10924, 10926, 10927, 10931, 10932, 10934, 10938, 10939, 10940, 10941, 10947, 10950, 10951, 10952, 10953, 10958, 10959, 10961, 10969, 10976, 10977, 10978, 10979, 10980, 10988, 10992, 10995, 10997, 11000, 11001, 11004, 11006, 11011, 11013, 11015, 11016, 11017, 11018, 11024, 11028, 11032, 11033, 11036, 11037, 11038, 11043, 11045, 11050, 11054, 11057, 11059, 11062, 11065, 11067, 11068, 11069, 11073, 11074, 11077, 11081, 11082, 11084, 11085, 11087, 11088, 11093, 11094, 11099, 11100, 11101, 11104, 11105, 11107, 11109, 11110, 11111, 11114, 11115, 11117, 11120, 11121, 11124, 11125, 11126, 11129, 11131, 11132, 11133, 11135, 11136, 11138, 11146, 11148, 11150, 11151, 11160, 11162, 11165, 11166, 11167, 11171, 11172, 11174, 11176, 11177, 11178, 11179, 11187, 11188, 11189, 11191, 11194, 11198, 11204, 11206, 11208, 11209, 11211, 11212, 11213, 11214, 11215, 11217, 11218, 11219, 11221, 11224, 11225, 11228, 11229, 11233, 11236, 11237, 11239, 11240, 11249, 11254, 11255, 11258, 11259, 11265, 11266, 11267, 11270, 11273, 11277, 11278, 11284, 11288, 11289, 11293, 11296, 11297, 11301, 11303, 11304, 11310, 11312, 11313, 11315, 11317, 11321, 11323, 11324, 11325, 11326, 11327, 11335, 11337, 11339, 11340, 11341, 11344, 11347, 11351, 11353, 11354, 11356, 11362, 11363, 11364, 11365, 11369, 11370, 11374, 11376, 11379, 11380, 11383, 11386, 11387, 11390, 11392, 11395, 11396, 11397, 11401, 11402, 11405, 11406, 11407, 11410, 11413, 11414, 11418, 11419, 11420, 11422, 11427, 11428, 11431, 11432, 11433, 11436, 11437, 11438, 11439, 11440, 11441, 11443, 11456, 11457, 11458, 11459, 11461, 11463, 11464, 11465, 11466, 11469, 11471, 11475, 11477, 11478, 11479, 11480, 11481, 11482, 11483, 11484, 11486, 11489, 11490, 11492, 11494, 11496, 11497, 11498, 11499, 11500, 11501, 11504, 11506, 11507, 11508, 11509, 11511, 11512, 11516, 11517, 11518, 11519, 11521, 11523, 11524, 11525, 11526, 11528, 11533, 11534, 11535, 11536, 11537, 11540, 11543, 11544, 11545, 11546, 11547, 11550, 11553, 11554, 11555, 11556, 11558, 11559, 11560, 11561, 11566, 11567, 11569, 11573, 11574, 11575, 11576, 11578, 11579, 11581, 11584, 11587, 11588, 11589, 11590, 11591, 11596, 11600, 11601, 11603, 11604, 11605, 11606, 11607, 11610, 11612, 11613, 11614, 11617, 11618, 11623, 11628, 11629, 11633, 11634, 11635, 11637, 11639, 11641, 11642, 11643, 11644, 11645, 11647, 11649, 11651, 11653, 11654, 11655, 11656, 11657, 11659, 11660, 11663, 11664, 11665, 11667, 11668, 11669, 11672, 11679, 11680, 11685, 11686, 11687, 11688, 11694, 11695, 11696, 11697, 11701, 11708, 11709, 11710, 11712, 11713, 11717, 11718, 11719, 11720, 11721, 11722, 11728, 11731, 11733, 11735, 11738, 11740, 11741, 11742, 11743, 11745, 11748, 11749, 11750, 11751, 11752, 11755, 11756, 11758, 11759, 11761, 11763, 11764, 11765, 11766, 11767, 11769, 11770, 11771, 11774, 11777, 11790, 11793, 11797, 11800, 11801, 11803, 11804, 11805, 11811, 11812, 11815, 11817, 11818, 11819, 11820, 11821, 11823, 11825, 11828, 11831, 11833, 11834, 11836, 11839, 11841, 11843, 11844, 11846, 11847, 11850, 11851, 11854, 11857, 11860, 11861, 11863, 11864, 11865, 11866, 11868, 11869, 11874, 11875, 11877, 11878, 11880, 11885, 11886, 11887, 11888, 11892, 11894, 11896, 11898, 11899, 11900, 11911, 11914, 11916, 11920, 11923, 11924, 11927, 11928, 11931, 11932, 11934, 11937, 11938, 11939, 11940, 11941, 11944, 11949, 11951, 11952, 11955, 11957, 11958, 11959, 11960, 11962, 11963, 11964, 11970, 11973, 11974, 11976, 11977, 11982, 11985, 11989, 11990, 11991, 11992, 11995, 12003, 12006, 12010, 12011, 12012, 12013, 12014, 12015, 12016, 12017, 12019, 12022, 12023, 12024, 12028, 12033, 12034, 12036, 12037, 12041, 12046, 12047, 12050, 12052, 12054, 12060, 12064, 12065, 12066, 12067, 12068, 12069, 12076, 12079, 12086, 12089, 12090, 12091, 12092, 12093, 12094, 12095, 12096, 12097, 12100, 12101, 12103, 12104, 12106, 12108, 12109, 12110, 12111, 12115, 12117, 12118, 12120, 12122, 12123, 12124, 12126, 12129, 12133, 12134, 12135, 12138, 12139, 12140, 12144, 12145, 12146, 12147, 12148, 12150, 12152, 12153, 12155, 12156, 12160, 12162, 12163, 12164, 12165, 12166, 12167, 12168, 12170, 12172, 12175, 12176, 12183, 12189, 12191, 12193, 12198, 12200, 12201, 12202, 12203, 12204, 12206, 12207, 12214, 12215, 12220, 12221, 12223, 12228, 12232, 12234, 12240, 12241, 12243, 12244, 12246, 12247, 12248, 12251, 12252, 12254, 12255, 12256, 12257, 12262, 12268, 12275, 12276, 12283, 12284, 12286, 12289, 12290, 12291, 12293, 12295, 12296, 12297, 12298, 12299, 12300, 12302, 12311, 12312, 12315, 12318, 12319, 12320, 12321, 12323, 12324, 12327, 12328, 12330, 12331, 12332, 12338, 12341, 12344, 12349, 12352, 12353, 12354, 12355, 12356, 12357, 12358, 12360, 12361, 12364, 12365, 12368, 12369, 12372, 12375, 12376, 12377, 12378, 12382, 12383, 12384, 12387, 12389, 12390, 12391, 12392, 12394, 12396, 12398, 12403, 12408, 12409, 12412, 12417, 12418, 12420, 12423, 12428, 12431, 12433, 12435, 12438, 12440, 12442, 12443, 12451, 12454, 12455, 12460, 12462, 12464, 12465, 12466, 12467, 12472, 12473, 12479, 12480, 12482, 12486, 12488, 12489, 12492, 12493, 12497, 12498, 12499, 12500, 12501, 12506, 12513, 12517, 12519, 12521, 12522, 12525, 12526, 12528, 12529, 12532, 12534, 12535, 12538, 12540, 12542, 12543, 12549, 12552, 12553, 12554, 12555, 12558, 12560, 12561, 12564, 12565, 12570, 12571, 12573, 12574, 12576, 12577, 12579, 12580, 12582, 12586, 12587, 12588, 12594, 12595, 12597, 12598, 12599, 12602, 12603, 12604, 12607, 12611, 12612, 12613, 12614, 12615, 12616, 12619, 12621, 12622, 12623, 12629, 12630, 12634, 12635, 12636, 12637, 12640, 12641, 12645, 12648, 12649, 12650, 12651, 12653, 12660, 12664, 12667, 12668, 12672, 12676, 12677, 12681, 12682, 12683, 12684, 12687, 12689, 12692, 12698, 12700, 12701, 12702, 12703, 12704, 12705, 12706, 12710, 12711, 12714, 12717, 12718, 12720, 12723, 12727, 12730, 12732, 12733, 12736, 12737, 12738, 12742, 12746, 12747, 12749, 12750, 12754, 12757, 12758, 12759, 12760, 12761, 12763, 12764, 12766, 12769, 12770, 12771, 12773, 12774, 12777, 12782, 12785, 12788, 12789, 12792, 12794, 12799, 12802, 12803, 12804, 12806, 12808, 12809, 12810, 12812, 12814, 12818, 12819, 12820, 12823, 12824, 12826, 12829, 12830, 12833, 12836, 12839, 12841, 12844, 12845, 12847, 12849, 12851, 12853, 12856, 12857, 12860, 12863, 12866, 12871, 12872, 12873, 12878, 12879, 12883, 12884, 12885, 12887, 12888, 12889, 12891, 12892, 12895, 12897, 12899, 12901, 12902, 12905, 12909, 12910, 12912, 12914, 12915, 12917, 12919, 12921, 12923, 12926, 12927, 12929, 12930, 12937, 12938, 12941, 12947, 12951, 12952, 12956, 12962, 12967, 12969, 12970, 12973, 12974, 12975, 12979, 12980, 12983, 12987, 12988, 12992, 12993, 12995, 12997, 12999, 13001, 13003, 13004, 13006, 13010, 13012, 13013, 13016, 13017, 13018, 13019, 13020, 13022, 13024, 13026, 13027, 13028, 13034, 13037, 13041, 13042, 13043, 13045, 13052, 13053, 13060, 13061, 13066, 13067, 13068, 13070, 13071, 13072, 13073, 13075, 13076, 13077, 13078, 13080, 13081, 13082, 13083, 13084, 13085, 13086, 13087, 13088, 13089, 13090, 13091, 13092, 13093, 13098, 13104, 13106, 13107, 13108, 13109, 13112, 13115, 13122, 13126, 13129, 13131, 13132, 13133, 13134, 13135, 13136, 13137, 13139, 13140, 13143, 13144, 13146, 13148, 13149, 13152, 13155, 13158, 13160, 13161, 13163, 13168, 13170, 13172, 13173, 13176, 13177, 13180, 13182, 13187, 13188, 13189, 13191, 13193, 13194, 13195, 13197, 13198, 13200, 13202, 13203, 13205, 13206, 13210, 13215, 13216, 13217, 13219, 13221, 13222, 13225, 13226, 13227, 13231, 13233, 13235, 13236, 13238, 13241, 13242, 13244, 13248, 13251, 13252, 13253, 13254, 13255, 13257, 13258, 13259, 13260, 13261, 13263, 13264, 13270, 13271, 13272, 13284, 13285, 13287, 13289, 13290, 13291, 13293, 13294, 13296, 13297, 13302, 13304, 13305, 13307, 13308, 13309, 13313, 13315, 13317, 13318, 13324, 13334, 13339, 13340, 13355, 13357, 13358, 13364, 13366, 13369, 13370, 13371, 13375, 13379, 13382, 13383, 13384, 13385, 13386, 13391, 13392, 13393, 13395, 13396, 13400, 13404, 13405, 13407, 13408, 13412, 13415, 13417, 13419, 13423, 13425, 13426, 13429, 13431, 13432, 13433, 13434, 13435, 13436, 13437, 13442, 13443, 13444, 13445, 13448, 13450, 13452, 13453, 13454, 13455, 13456, 13457, 13458, 13459, 13461, 13462, 13463, 13465, 13466, 13467, 13468, 13469, 13470, 13477, 13479, 13481, 13483, 13484, 13487, 13489, 13492, 13493, 13494, 13496, 13498, 13500, 13501, 13502, 13503, 13504, 13508, 13511, 13512, 13514, 13515, 13517, 13519, 13523, 13525, 13526, 13530, 13531, 13532, 13533, 13534, 13535, 13539, 13542, 13543, 13546, 13549, 13550, 13551, 13553, 13555, 13556, 13562, 13564, 13569, 13580, 13581, 13584, 13587, 13591, 13592, 13594, 13595, 13596, 13597, 13599, 13600, 13601, 13602, 13604, 13609, 13610, 13611, 13612, 13613, 13614, 13617, 13618, 13619, 13620, 13621, 13623, 13626, 13627, 13632, 13633, 13635, 13636, 13637, 13639, 13641, 13644, 13645, 13646, 13648, 13649, 13650, 13652, 13655, 13656, 13657, 13659, 13660, 13662, 13665, 13668, 13669, 13671, 13673, 13676, 13678, 13680, 13681, 13683, 13684, 13685, 13687, 13688, 13691, 13692, 13693, 13696, 13703, 13704, 13706, 13707, 13711, 13712, 13714, 13715, 13721, 13724, 13725, 13727, 13728, 13730, 13732, 13734, 13741, 13742, 13745, 13746, 13754, 13762, 13763, 13764, 13765, 13766, 13774, 13776, 13777, 13778, 13783, 13784, 13788, 13790, 13794, 13795, 13796, 13797, 13801, 13802, 13807, 13813, 13815, 13823, 13826, 13830, 13832, 13834, 13836, 13837, 13838, 13840, 13843, 13845, 13847, 13850, 13852, 13853, 13855, 13861, 13862, 13864, 13866, 13870, 13871, 13872, 13873, 13874, 13876, 13877, 13881, 13882, 13883, 13884, 13885, 13887, 13889, 13890, 13891, 13892, 13893, 13894, 13895, 13896, 13899, 13901, 13903, 13905, 13910, 13912, 13914, 13915, 13916, 13917, 13918, 13921, 13922, 13923, 13926, 13927, 13928, 13929, 13930, 13931, 13932, 13933, 13934, 13937, 13938, 13940, 13945, 13948, 13952, 13953, 13954, 13956, 13959, 13960, 13961, 13963, 13967, 13969, 13971, 13972, 13975, 13977, 13978, 13981, 13984, 13988, 13990, 13991, 13994, 13998, 14002, 14004, 14005, 14007, 14009, 14012, 14015, 14016, 14017, 14018, 14020, 14021, 14022, 14023, 14026, 14030, 14034, 14035, 14038, 14039, 14040, 14042, 14045, 14046, 14047, 14051, 14052, 14061, 14062, 14063, 14065, 14068, 14069, 14071, 14073, 14074, 14077, 14079, 14081, 14083, 14084, 14086, 14087, 14092, 14094, 14095, 14096, 14097, 14101, 14104, 14105, 14107, 14108, 14110, 14111, 14112, 14113, 14115, 14116, 14117, 14118, 14120, 14124, 14129, 14130, 14132, 14133, 14139, 14140, 14141, 14144, 14145, 14146, 14148, 14150, 14151, 14152, 14153, 14155, 14156, 11404, 11409, 11412, 11421, 11435, 11442, 11444, 11445, 11452, 11462, 11468, 11472, 11473, 11485, 11488, 11491, 11514, 11520, 11527, 11531, 11538, 11539, 11548, 11549, 11557, 11562, 11563, 11570, 11571, 11572, 11577, 11582, 11583, 11594, 11595, 11598, 11602, 11608, 11609, 11619, 11626, 11630, 11631, 11636, 11646, 11648, 11650, 11662, 11670, 11671, 11674, 11684, 11691, 11692, 11700, 11706, 11707, 11711, 11723, 11724, 11726, 11727, 11730, 11734, 11736, 11760, 11762, 11772, 11778, 11779, 11780, 11781, 11784, 11787, 11788, 11796, 11806, 11814, 11816, 11824, 11826, 11827, 11830, 11835, 11837, 11840, 11842, 11849, 11852, 11867, 11872, 11873, 11879, 11881, 11889, 11890, 11893, 11895, 11901, 11904, 11905, 11912, 11926, 11929, 11933, 11936, 11942, 11946, 11967, 11975, 11980, 11983, 11986, 11988, 11993, 11998, 12001, 12005, 12009, 12018, 12025, 12027, 12030, 12032, 12042, 12044, 12045, 12051, 12055, 12057, 12059, 12061, 12063, 12074, 12078, 12081, 12082, 12083, 12098, 12099, 12105, 12121, 12125, 12131, 12132, 12143, 12151, 12159, 12171, 12173, 12179, 12180, 12181, 12182, 12184, 12186, 12190, 12192, 12205, 12213, 12216, 12219, 12222, 12224, 12225, 12227, 12230, 12233, 12235, 12236, 12238, 12245, 12258, 12260, 12271, 12280, 12281, 12282, 12294, 12303, 12304, 12306, 12307, 12309, 12333, 12334, 12335, 12339, 12342, 12346, 12347, 12350, 12351, 12359, 12370, 12374, 12381, 12386, 12388, 12399, 12402, 12404, 12405, 12406, 12407, 12413, 12414, 12415, 12419, 12422, 12424, 12425, 12430, 12436, 12447, 12450, 12456, 12457, 12471, 12476, 12481, 12483, 12490, 12491, 12503, 12505, 12507, 12508, 12509, 12514, 12515, 12518, 12520, 12524, 12527, 12531, 12533, 12539, 12544, 12546, 12548, 12550, 12557, 12563, 12566, 12569, 12578, 12581, 12596, 12600, 12601, 12605, 12606, 12609, 12620, 12625, 12631, 12632, 12643, 12644, 12646, 12647, 12655, 12657, 12665, 12669, 12670, 12671, 12673, 12674, 12679, 12690, 12697, 12699, 12707, 12716, 12719, 12729, 12735, 12739, 12768, 12778, 12783, 12786, 12790, 12793, 12797, 12798, 12813, 12815, 12817, 12821, 12828, 12837, 12842, 12852, 12858, 12859, 12865, 12868, 12870, 12877, 12882, 12894, 12904, 12911, 12913, 12922, 12924, 12925, 12931, 12932, 12935, 12943, 12948, 12961, 12963, 12964, 12971, 12978, 12981, 12982, 12985, 12989, 12990, 12991, 13005, 13011, 13021, 13035, 13036, 13038, 13044, 13046, 13047, 13050, 13051, 13054, 13056, 13058, 13062, 13102, 13113, 13114, 13116, 13117, 13119, 13123, 13128, 13130, 13145, 13150, 13153, 13154, 13157, 13159, 13164, 13166, 13169, 13178, 13179, 13199, 13208, 13209, 13213, 13223, 13224, 13228, 13240, 13246, 13262, 13265, 13267, 13273, 13275, 13280, 13282, 13286, 13288, 13298, 13300, 13301, 13311, 13325, 13327, 13329, 13331, 13332, 13333, 13341, 13348, 13349, 13351, 13352, 13353, 13363, 13367, 13368, 13373, 13374, 13377, 13380, 13389, 13390, 13397, 13403, 13416, 13418, 13422, 13424, 13438, 13440, 13446, 13451, 13471, 13474, 13475, 13488, 13491, 13495, 13497, 13499, 13505, 13509, 13513, 13520, 13521, 13524, 13527, 13563, 13567, 13571, 13572, 13573, 13575, 13577, 13578, 13588, 13590, 13593, 13605, 13606, 13607, 13615, 13625, 13628, 13634, 13640, 13642, 13643, 13647, 13653, 13654, 13664, 13666, 13672, 13675, 13682, 13686, 13690, 13694, 13700, 13702, 13705, 13708, 13709, 13710, 13718, 13720, 13729, 13735, 13738, 13748, 13749, 13755, 13756, 13758, 13760, 13769, 13771, 13772, 13773, 13780, 13786, 13789, 13792, 13804, 13806, 13811, 13812, 13818, 13820, 13821, 13824, 13827, 13829, 13833, 13846, 13854, 13863, 13865, 13867, 13868, 13875, 13878, 13886, 13888, 13902, 13906, 13908, 13919, 13942, 13943, 13944, 13946, 13947, 13955, 13966, 13968, 13970, 13974, 13980, 13985, 13986, 13993, 13995, 13996, 13997, 13999, 14000, 14010, 14024, 14029, 14032, 14036, 14037, 14041, 14050, 14053, 14054, 14058, 14064, 14067, 14070, 14078, 14088, 14091, 14099, 14100, 14114, 14126, 14134, 14142, 14143, 14147, 14149, 14154, 14168, 14175, 14177, 14179, 14183, 14188, 14191, 14199, 14200, 14202, 14212, 14215, 14221, 14222, 14226, 14234, 14235, 14243, 14246, 14250, 14254, 14259, 14268, 14276, 14282, 14290, 14296, 14304, 14305, 14314, 14330, 14332, 14333, 14339, 14352, 14353, 14358, 14359, 14372, 14374, 14381, 14382, 14388, 14389, 14390, 14391, 14394, 14419, 14420, 14421, 14425, 14441, 14442, 14446, 14458, 14459, 14461, 14475, 14476, 14478, 14479, 14480, 14484, 14487, 14489, 14492, 14499, 14500, 14502, 14506, 14508, 14519, 14520, 9431, 9441, 9451, 9452, 9459, 9460, 9463, 9469, 9470, 9472, 9482, 9484, 9490, 9492, 9493, 9498, 9499, 9505, 9516, 9518, 9532, 9537, 9580, 9581, 9592, 9594, 9596, 9602, 9613, 9615, 9624, 9632, 9636, 9643, 9644, 9646, 9655, 9658, 9661, 9662, 9668, 9671, 9672, 9681, 9688, 9692, 9695, 9706, 9708, 9722, 9724, 9729, 9734, 9735, 9741, 9757, 9762, 9763, 9765, 9766, 9769, 9771, 9794, 9797, 9805, 9818, 9830, 9854, 9859, 9876, 9887, 9889, 9897, 9900, 9901, 9908, 9914, 9917, 9920, 9928, 9940, 9949, 9953, 9967, 9971, 9991, 9993, 9997, 10001, 10017, 10018, 10057, 10059, 10065, 10075, 10082, 10083, 10093, 10104, 10128, 10134, 10145, 10156, 10158, 10173, 10179, 10182, 10190, 10200, 10207, 10211, 10213, 10216, 10225, 10244, 10259, 10274, 10301, 10311, 10323, 10330, 10343, 10348, 10359, 10362, 10366, 10420, 10441, 10447, 10458, 10477, 10480, 10482, 10483, 10486, 10499, 10501, 10526, 10539, 10549, 10557, 10562, 10565, 10566, 10574, 10577, 10578, 10586, 10591, 10593, 10617, 10623, 10628, 10634, 10635, 10638, 10655, 10660, 10674, 10677, 10678, 10680, 10682, 10685, 10686, 10688, 10697, 10710, 10714, 10738, 10743, 10751, 10768, 10778, 10791, 10792, 10804, 10813, 10823, 10828, 10841, 10842, 10846, 10848, 10849, 10854, 10880, 10881, 10884, 10888, 10891, 10896, 10907, 10933, 10935, 10936, 10942, 10943, 10945, 10946, 10949, 10960, 10962, 10964, 10970, 10989, 10990, 10991, 11003, 11007, 11023, 11025, 11026, 11041, 11053, 11055, 11060, 11064, 11070, 11086, 11095, 11102, 11108, 11122, 11123, 11140, 11143, 11145, 11157, 11163, 11169, 11181, 11184, 11196, 11202, 11222, 11230, 11238, 11241, 11242, 11243, 11246, 11247, 11248, 11250, 11251, 11256, 11268, 11269, 11271, 11274, 11280, 11294, 11302, 11314, 11333, 11348, 11358, 11360, 11368, 11375, 11385, 11388, 11393, 11399, 11403, 11408, 11417, 11423, 11450, 11451, 11454, 11505, 11510, 11513, 11515, 11522, 11542, 11552, 11592, 11593, 11599, 11621, 11625, 11640, 11661, 11673, 11678, 11681, 11682, 11683, 11689, 11698, 11704, 11705, 11715, 11716, 11725, 11746, 11753, 11773, 11775, 11782, 11783, 11786, 11795, 11807, 11808, 11809, 11822, 11829, 11838, 11848, 11853, 11855, 11862, 11882, 11884, 11903, 11908, 11910, 11915, 11919, 11921, 11943, 11947, 11950, 11953, 11956, 11969, 11978, 11984, 11996, 11997, 12000, 12002, 12026, 12031, 12048, 12049, 12058, 12070, 12071, 12073, 12075, 12080, 12084, 12085, 12088, 12112, 12119, 12127, 12136, 12141, 12142, 12158, 12188, 12197, 12209, 12217, 12218, 12226, 12229, 12231, 12237, 12239, 12242, 12250, 12259, 12263, 12265, 12266, 12267, 12269, 12301, 12305, 12314, 12325, 12326, 12336, 12363, 12373, 12393, 12395, 12397, 12400, 12401, 12432, 12437, 12439, 12441, 12444, 12459, 12469, 12470, 12475, 12477, 12478, 12485, 12495, 12504, 12536, 12537, 12551, 12585, 12590, 12591, 12592, 12608, 12617, 12618, 12624, 12627, 12628, 12642, 12654, 12659, 12661, 12662, 12675, 12678, 12685, 12686, 12693, 12695, 12709, 12712, 12715, 12721, 12722, 12724, 12726, 12741, 12745, 12751, 12765, 12772, 12775, 12780, 12787, 12800, 12805, 12831, 12832, 12834, 12850, 12855, 12861, 12864, 12874, 12900, 12903, 12907, 12928, 12945, 12954, 12957, 12959, 12960, 12968, 12972, 12976, 12977, 12994, 12998, 13002, 13007, 13015, 13023, 13029, 13032, 13040, 13057, 13059, 13065, 13074, 13079, 13094, 13095, 13096, 13097, 13101, 13105, 13110, 13120, 13121, 13127, 13142, 13181, 13186, 13190, 13192, 13201, 13207, 13214, 13229, 13230, 13232, 13245, 13247, 13250, 13266, 13274, 13276, 13295, 13299, 13303, 13320, 13323, 13326, 13330, 13336, 13337, 13338, 13343, 13345, 13346, 10405, 10411, 10416, 10422, 10425, 10429, 10437, 10450, 10452, 10453, 10455, 10456, 10461, 10474, 10478, 10493, 10497, 10509, 10512, 10514, 10518, 10519, 10521, 10528, 10535, 10536, 10546, 10551, 10552, 10561, 10576, 10581, 10600, 10607, 10608, 10614, 10618, 10625, 10626, 10627, 10637, 10642, 10659, 10667, 10668, 10689, 10703, 10707, 10709, 10713, 10724, 10753, 10759, 10769, 10773, 10777, 10779, 10783, 10787, 10802, 10805, 10816, 10830, 10833, 10838, 10839, 10844, 10850, 10851, 10856, 10864, 10865, 10873, 10876, 10877, 10878, 10895, 10902, 10903, 10909, 10915, 10918, 10921, 10928, 10930, 10944, 10957, 10963, 10966, 10972, 10973, 10982, 10985, 11002, 11005, 11008, 11009, 11012, 11019, 11021, 11022, 11027, 11029, 11030, 11035, 11044, 11047, 11049, 11063, 11066, 11076, 11078, 11079, 11083, 11091, 11116, 11118, 11127, 11128, 11134, 11144, 11147, 11149, 11153, 11154, 11155, 11158, 11159, 11164, 11180, 11182, 11186, 11193, 11195, 11201, 11203, 11205, 11216, 11226, 11232, 11244, 11245, 11253, 11261, 11282, 11287, 11290, 11292, 11295, 11300, 11307, 11319, 11328, 11332, 11342, 11343, 11345, 11352, 11398, 11411, 11415, 11416, 11424, 11425, 11426, 11429, 11430, 11434, 11447, 11448, 11449, 11453, 11460, 11467, 11470, 11474, 11487, 11493, 11495, 11502, 11529, 11530, 11532, 11541, 11551, 11564, 11568, 11580, 11585, 11586, 11615, 11616, 11620, 11624, 11652, 11666, 11675, 11676, 11690, 11699, 11702, 11703, 11714, 11729, 11732, 11737, 11739, 11744, 11747, 11754, 11757, 11768, 11776, 11785, 11789, 11791, 11792, 11798, 11799, 11802, 11810, 11813, 11832, 11845, 11856, 11858, 11859, 11870, 11871, 11876, 11891, 11897, 11917, 11918, 11925, 11930, 11935, 11945, 11948, 11961, 11965, 11966, 11968, 11971, 11972, 11979, 11981, 11994, 12004, 12007, 12008, 12020, 12029, 12038, 12039, 12040, 12043, 12053, 12056, 12072, 12087, 12102, 12107, 12113, 12114, 12116, 12128, 12130, 12137, 12149, 12154, 12161, 12169, 12174, 12177, 12185, 12187, 12194, 12195, 12196, 12199, 12208, 12249, 12253, 12261, 12270, 12272, 12273, 12274, 12277, 12278, 12279, 12285, 12287, 12288, 12292, 12308, 12310, 12313, 12316, 12317, 12329, 12337, 12340, 12345, 12348, 12367, 12380, 12385, 12411, 12421, 12427, 12429, 12434, 12446, 12448, 12449, 12452, 12453, 12458, 12461, 12463, 12474, 12494, 12496, 12502, 12510, 12512, 12523, 12545, 12547, 12562, 12567, 12568, 12572, 12575, 12583, 12584, 12589, 12593, 12610, 12626, 12633, 12638, 12656, 12658, 12663, 12666, 12688, 12691, 12694, 12696, 12708, 12713, 12728, 12731, 12734, 12740, 12743, 12744, 12748, 12752, 12756, 12762, 12767, 12776, 12779, 12784, 12795, 12801, 12807, 12811, 12816, 12822, 12827, 12835, 12838, 12840, 12843, 12846, 12848, 12854, 12862, 12867, 12875, 12876, 12880, 12881, 12886, 12890, 12893, 12896, 12898, 12906, 12908, 12916, 12920, 12934, 12936, 12939, 12942, 12946, 12950, 12955, 12965, 12984, 12996, 13000, 13008, 13009, 13014, 13031, 13033, 13039, 13048, 13049, 13055, 13063, 13064, 13099, 13100, 13103, 13111, 13118, 13124, 13125, 13138, 13151, 13156, 13162, 13165, 13167, 13171, 13183, 13184, 13185, 13196, 13204, 13211, 13212, 13218, 13234, 13237, 13249, 13256, 13268, 13277, 13279, 13281, 13283, 13292, 13306, 13310, 13312, 13314, 13316, 13319, 13322, 13342, 13344, 13354, 13356, 13360, 13362, 13372, 13376, 13378, 13388, 13394, 13398, 13402, 13414, 13421, 13427, 13430, 13439, 13441, 13447, 13449, 13460, 13464, 13476, 13482, 13485, 13486, 13510, 13518, 13529, 13536, 13538, 13541, 13552, 13554, 13558, 13559, 13560, 13561, 13565, 13574, 13582, 13589, 13616, 13622, 13629, 13630, 13631, 13651, 13661, 13674, 13677, 13679, 13689, 13695, 13716, 13717, 13733, 13736, 13737, 13740, 13744, 13753, 13757, 13761, 13767, 13775, 13779, 13782, 13787, 13791, 13799, 13803, 13808, 13814, 13816, 13819, 13825, 13828, 13844, 9438, 9476, 9486, 9524, 9549, 9552, 9557, 9565, 9597, 9638, 9654, 9676, 9680, 9712, 9731, 9749, 9753, 9779, 9783, 9792, 9795, 9799, 9918, 9978, 10023, 10029, 10061, 10070, 10115, 10137, 10157, 10160, 10165, 10180, 10276, 10284, 10292, 10294, 10298, 10312, 10335, 10345, 10368, 10382, 10410, 10412, 10449, 10457, 10508, 10515, 10564, 10573, 10601, 10610, 10679, 10694, 10698, 10721, 10758, 10761, 10788, 10789, 10796, 10852, 10857, 10875, 10882, 10890, 10893, 10897, 10948, 10954, 10967, 10975, 11040, 11072, 11090, 11106, 11130, 11137, 11152, 11263, 11276, 11336, 11346, 11361, 11367, 11381, 11389, 11446, 11455, 11476, 11503, 11565, 11597, 11611, 11622, 11627, 11632, 11638, 11658, 11677, 11693, 11794, 11883, 11902, 11906, 11907, 11909, 11913, 11922, 11954, 11987, 11999, 12021, 12035, 12062, 12077, 12157, 12178, 12210, 12211, 12212, 12264, 12322, 12343, 12362, 12366, 12371, 12379, 12410, 12416, 12426, 12445, 12468, 12484, 12487, 12511, 12516, 12530, 12541, 12556, 12559, 12639, 12652, 12680, 12725, 12753, 12755, 12781, 12791, 12796, 12825, 12869, 12918, 12933, 12940, 12944, 12949, 12953, 12958, 12966, 12986, 13025, 13030, 13069, 13141, 13147, 13174, 13175, 13220, 13239, 13243, 13269, 13278, 13321, 13328, 13335, 13350, 13365, 13387, 13472, 13473, 13490, 13506, 13547, 13576, 13579, 13663, 13667, 13670, 13697, 13699, 13719, 13731, 13739, 13747, 13759, 13798]
